Column_0
-160758
-137774
-122310
-125053
-133005
-160921
-137791
-121486
-124777
-132634
-159761
-137830
-123025
-125283
-132494
-160477
-138536
-122055
-124460
-132302
-160124
-137735
-122629
-125027
-132090
-159924
-139231
-123218
-124886
-131937
-161172
-139079
-120669
-124184
-131740
-161217
-138346
-120521
-124547
-131513
-161258
-140128
-121834
-124763
-131097
-159583
-141316
-123391
-124874
-131316
-160984
-140884
-122452
-124687
-130926
-159357
-136061
-118839
-124010
-130487
-157481
-136768
-119447
-123221
-130145
-158082
-136249
-118214
-123602
-130274
-159795
-142841
-123024
-124556
-130356
-159688
-141861
-123087
-124762
-130225
-159946
-143424
-125412
-125539
-130267
-159707
-141739
-123325
-125173
-129851
-155401
-129629
-101708
-110736
-123110
-134716
-118128
-111042
-122049
-129382
-158647
-142138
-120862
-123447
-129314
-158888
-140661
-119600
-123585
-129277
-158681
-142694
-121251
-123903
-129032
-157082
-139013
-119659
-123822
-128852
-157866
-141154
-119790
-123258
-128646
-156769
-140237
-119258
-123059
-128346
-156199
-139992
-117361
-121771
-128154
-155754
-137635
-114499
-120917
-127612
-151867
-134061
-110350
-118572
-127538
-151906
-132279
-110412
-118894
-127131
-151982
-132092
-108412
-118495
-127150
-151889
-135591
-114458
-120702
-127406
-154092
-139149
-117616
-122300
-127487
-155732
-144755
-120933
-122924
-127653
-155994
-145155
-121727
-123312
-127656
-155850
-143937
-122444
-124138
-127608
-155788
-144169
-121946
-124762
-127554
-156169
-144025
-119176
-123451
-127354
-156272
-146774
-122239
-122993
-127266
-155109
-145075
-121838
-123561
-127018
-155667
-146286
-121176
-123364
-127156
-155093
-146614
-121420
-123267
-127286
-154504
-146284
-121657
-123291
-126974
-155173
-146894
-121447
-122869
-126852
-154406
-146786
-120830
-122045
-126317
-154080
-146919
-120217
-123105
-126379
-153130
-144999
-118132
-120784
-126137
-153944
-147487
-121933
-123157
-126674
-153986
-148224
-122559
-123413
-126594
-154151
-150187
-122696
-122978
-126546
-154474
-150540
-125697
-125361
-126648
-154851
-152409
-123814
-121515
-125026
-138579
-118116
-90696
-104463
-123229
-149662
-145961
-122748
-122956
-126026
-151744
-148681
-121710
-123103
-126049
-152876
-151254
-123974
-123437
-126146
-152674
-151289
-124068
-123355
-125845
-150915
-149342
-123699
-122876
-125922
-151247
-149182
-121832
-122218
-125613
-149861
-146316
-119887
-121586
-125089
-150187
-147414
-117929
-119509
-125192
-147783
-143668
-116911
-118351
-124818
-146629
-141159
-112315
-115560
-124374
-145300
-140749
-113491
-114941
-124144
-146002
-141625
-113897
-116409
-124417
-147415
-147288
-118362
-120105
-125256
-149263
-153331
-124477
-121632
-125212
-148731
-152500
-126229
-124178
-125477
-149564
-155916
-126922
-123554
-125472
-149909
-155319
-126796
-125022
-125692
-148934
-155434
-127078
-123406
-125450
-149825
-159017
-127960
-124956
-125369
-149064
-156933
-126999
-123747
-125539
-148389
-156844
-127876
-122986
-125366
-147461
-156022
-128012
-124312
-125540
-147782
-157664
-128479
-122328
-125079
-148079
-159377
-128571
-124449
-125431
-147176
-158514
-129609
-124091
-125374
-147052
-158179
-127377
-122794
-125307
-146117
-155462
-127782
-123967
-125152
-145012
-153150
-125984
-122182
-125008
-144671
-154461
-126807
-122347
-125165
-145961
-158365
-130048
-124308
-125457
-145857
-159010
-128070
-124056
-125881
-145776
-160609
-131781
-124335
-125538
-145784
-162237
-132180
-126270
-125817
-143542
-148203
-107533
-103736
-119305
-134972
-137160
-116876
-117347
-124547
-144121
-160167
-130871
-123467
-125302
-144254
-160459
-131615
-124657
-125501
-144022
-160740
-130692
-123410
-125433
-143306
-157987
-127577
-122881
-125545
-143053
-159624
-129869
-122394
-125136
-142764
-157935
-129525
-123102
-125089
-141954
-157099
-126654
-119921
-124712
-141281
-155708
-125034
-118667
-124363
-140769
-154474
-123209
-116866
-123712
-139238
-150109
-119925
-114772
-123506
-138864
-150155
-119774
-114614
-123300
-139001
-152657
-123857
-117491
-123957
-139724
-157209
-129714
-121952
-125027
-140405
-161006
-131211
-121391
-124738
-140648
-163033
-134117
-124285
-125408
-139810
-159944
-132873
-125199
-125653
-139827
-161949
-134407
-123570
-124939
-139682
-162395
-133194
-123234
-125357
-139362
-161149
-134775
-124175
-125339
-139131
-162159
-134403
-123702
-125558
-138867
-161018
-132207
-122970
-125681
-138557
-162524
-135279
-123776
-125666
-138278
-162208
-137080
-124731
-125687
-138369
-163631
-137059
-124223
-125281
-137844
-161614
-134708
-123099
-125170
-137882
-163932
-136635
-123979
-125108
-136983
-160474
-134987
-122827
-125032
-136753
-159886
-130744
-118806
-124289
-136424
-160009
-132887
-121332
-124686
-136574
-162497
-136876
-123727
-125237
-136476
-163242
-138297
-125508
-125509
-136341
-163211
-136583
-122447
-125499
-136156
-164719
-139829
-126275
-126044
-135127
-155900
-122132
-101413
-114787
-128748
-138666
-118902
-115972
-124431
-135027
-163107
-138627
-124019
-125043
-134573
-160454
-139065
-124812
-125567
-134854
-162883
-138681
-123952
-125202
-134251
-161048
-137751
-123257
-125019
-134238
-161515
-135117
-122611
-125356
-133976
-161194
-135649
-121966
-124844
-133699
-160063
-136375
-121001
-124497
-133092
-158236
-132786
-118799
-124155
-132622
-156356
-131074
-115864
-122520
-131860
-153096
-128122
-114312
-121527
-131761
-154810
-128526
-115047
-122121
-131476
-155861
-131694
-116126
-123118
-131950
-159292
-136661
-121596
-124730
-131988
-159972
-139391
-122547
-124713
-132155
-161904
-139864
-123407
-125539
-131909
-162719
-142789
-124903
-125082
-131531
-161249
-141530
-125092
-124957
-131324
-162682
-142677
-123913
-124786
-131057
-163038
-143046
-124137
-125085
-130947
-162251
-143289
-124865
-125269
-130773
-161492
-142496
-124146
-125161
-130601
-163221
-143925
-124604
-125398
-130337
-163074
-144634
-125051
-125453
-130266
-162352
-145241
-124706
-124839
-130205
-161667
-144899
-125756
-125091
-130071
-162447
-145638
-123986
-124804
-129857
-160572
-143932
-125496
-125360
-129786
-160324
-143664
-123838
-124998
-129346
-158472
-141344
-120601
-124415
-129359
-158092
-140826
-122984
-125424
-129695
-160884
-145689
-125575
-125866
-129535
-161126
-146316
-124424
-125385
-129414
-161784
-148517
-126189
-125621
-129249
-161617
-149837
-127251
-125867
-128151
-149397
-122005
-93751
-108407
-125044
-149575
-134789
-117950
-123905
-128717
-159607
-145638
-122416
-125381
-128727
-159817
-148156
-125362
-125771
-128546
-159731
-147932
-126954
-125546
-128412
-158490
-147557
-124290
-125077
-128222
-157699
-146106
-124539
-124316
-127907
-157193
-145669
-123457
-124715
-127963
-155687
-143405
-121718
-123494
-127414
-154793
-142024
-118299
-122129
-127150
-152472
-137804
-115389
-120029
-126776
-151074
-137190
-113053
-119346
-126532
-149824
-135849
-112649
-118047
-126344
-152086
-139632
-116281
-120776
-126767
-153506
-142607
-122043
-124921
-127021
-155993
-147287
-123564
-124891
-127246
-156289
-149440
-123792
-123710
-126896
-156266
-149818
-124842
-124479
-126917
-155230
-149496
-124846
-124251
-126775
-155592
-149677
-124819
-124447
-126870
-156268
-151304
-124000
-124287
-126877
-155004
-150131
-124811
-123896
-126879
-155229
-150955
-125162
-123784
-126489
-154554
-152557
-125927
-123489
-126660
-154366
-151486
-126241
-125431
-126824
-153907
-151733
-126515
-125099
-126721
-154509
-153125
-125985
-124169
-126356
-153705
-152119
-125422
-124256
-126113
-153819
-154482
-128841
-124567
-126131
-153329
-152957
-125194
-123506
-125891
-152207
-150071
-121456
-121956
-125786
-151077
-149698
-123414
-123179
-125936
-151727
-153906
-129354
-126199
-126286
-153511
-156721
-127702
-124625
-126336
-153108
-155601
-127190
-124962
-126250
-152802
-155874
-129573
-126593
-126088
-148011
-138745
-101391
-102791
-119697
-138125
-133311
-116361
-120597
-125446
-151686
-155627
-124949
-123392
-125880
-150749
-154997
-127110
-124429
-125817
-150484
-156052
-127982
-124458
-125514
-150042
-154817
-126887
-124197
-125489
-149341
-153786
-125104
-122669
-125397
-149030
-153621
-124550
-122797
-125187
-146863
-151925
-125111
-121639
-124901
-146894
-149659
-122651
-121344
-124699
-146207
-148700
-118091
-116674
-123915
-145060
-145874
-116737
-116642
-123844
-143857
-143297
-113945
-116897
-123872
-144781
-149624
-120340
-118823
-124324
-146003
-153209
-124550
-121817
-124942
-146594
-156943
-128856
-124562
-125274
-147181
-158439
-130351
-125585
-125221
-146768
-158399
-129053
-124406
-125135
-146654
-159299
-128344
-122801
-125140
-146247
-158511
-128032
-122035
-124929
-145961
-159443
-130536
-123892
-125061
-145119
-157638
-128524
-124871
-125486
-145254
-158739
-130537
-123806
-125201
-145522
-159997
-130569
-125014
-126002
-145307
-158137
-129814
-124801
-126238
-145276
-159075
-130754
-125027
-126207
-145409
-160341
-131411
-124976
-126348
-144871
-160097
-130928
-122571
-126267
-144976
-160701
-131155
-123236
-126067
-144804
-162310
-132331
-124354
-125959
-143433
-159612
-130702
-123511
-125838
-143063
-157042
-126938
-120420
-125369
-142440
-156923
-129371
-123467
-125826
-143673
-161767
-130329
-124476
-126254
-143181
-162390
-133459
-125569
-126231
-142644
-162337
-133988
-125052
-126154
-142537
-162834
-134534
-125789
-126199
-140524
-150884
-111547
-98331
-116172
-131593
-136069
-118931
-118042
-124885
-141246
-161876
-129850
-119892
-125547
-141022
-161309
-133702
-122215
-125260
-140938
-162147
-133351
-123167
-125646
-140456
-161443
-131840
-122377
-125389
-140032
-159851
-131052
-122161
-125402
-139914
-161810
-131302
-120906
-124766
-138887
-158130
-130067
-120551
-124683
-138469
-157691
-128489
-117538
-124083
-137614
-154482
-124492
-116480
-123586
-136937
-153132
-122631
-113733
-122597
-136281
-151483
-121332
-114195
-123162
-136695
-153469
-124509
-116705
-123843
-136458
-155599
-129799
-120302
-124461
-137004
-159405
-133765
-120463
-123981
-137386
-162705
-138775
-125346
-125353
-137162
-162141
-137886
-124682
-125507
-136639
-161421
-136131
-123547
-124449
-135682
-162198
-134117
-121453
-124170
-135272
-160332
-132377
-123076
-124569
-134952
-161658
-136344
-123230
-124434
-134842
-161718
-135332
-122236
-123928
-134846
-162939
-137887
-124436
-124522
-134322
-162047
-135819
-121483
-124589
-134194
-160894
-137163
-123054
-124303
-134204
-164148
-139559
-123451
-124591
-134266
-162242
-138452
-124633
-124972
-133926
-164039
-139630
-122967
-124645
-133714
-161764
-136842
-122669
-124856
-133406
-159855
-135736
-121698
-124212
-132801
-158535
-134269
-120201
-123986
-132803
-159664
-136189
-122487
-125106
-133030
-161099
-139777
-124967
-125058
-133067
-161679
-140949
-125069
-125033
-132925
-163914
-140517
-124142
-124942
-132591
-163199
-141776
-124275
-124800
-130049
-143917
-107317
-88721
-110760
-128315
-151799
-131387
-120022
-124499
-131445
-160852
-139757
-121305
-123982
-131501
-162244
-139709
-122754
-125013
-131226
-159492
-139939
-123238
-124841
-131069
-161302
-138739
-121818
-124971
-130759
-160601
-139704
-122711
-124338
-130394
-161333
-139521
-120856
-124302
-130174
-157232
-136196
-119416
-123514
-129761
-157617
-135507
-116264
-121567
-129374
-156399
-134400
-114862
-121368
-128639
-151672
-131714
-113577
-121135
-128526
-152318
-130797
-112812
-120282
-128661
-155057
-134899
-115887
-121639
-128972
-158574
-140882
-120442
-123625
-129201
-158763
-143906
-123426
-124299
-129156
-160160
-144877
-122855
-124212
-129117
-160941
-145553
-124205
-125137
-129084
-159817
-143696
-121056
-123894
-128843
-158575
-145516
-124307
-125316
-128744
-157974
-143742
-124102
-125124
-128851
-157981
-143649
-124684
-125278
-128782
-158386
-145519
-125146
-125452
-128576
-158066
-144318
-123801
-125122
-128597
-158529
-147604
-125376
-124662
-128374
-158593
-146446
-124564
-125504
-128471
-158382
-145694
-124933
-125376
-128209
-157909
-145204
-123737
-125467
-128075
-156487
-144363
-121542
-123152
-127898
-156738
-144795
-121844
-124179
-127516
-154602
-143772
-121411
-123006
-127517
-156711
-147629
-124489
-124557
-127679
-157862
-148693
-123460
-124449
-127647
-157666
-149089
-124147
-125602
-127627
-157199
-150234
-127111
-125804
-127467
-157062
-143467
-109652
-114117
-123519
-134969
-115399
-102347
-117672
-126504
-154661
-148767
-125054
-124273
-126808
-155623
-148566
-122884
-123951
-126862
-155621
-149437
-124132
-123662
-126659
-154337
-146771
-121051
-123211
-126666
-153172
-146404
-122291
-123257
-126266
-154314
-148786
-122781
-123149
-126200
-152844
-146904
-120937
-122122
-126047
-152226
-145603
-119571
-121474
-125822
-150294
-141364
-116685
-119796
-125434
-148838
-138947
-115236
-119697
-125290
-149484
-140678
-113901
-119112
-125218
-148202
-141284
-117887
-120399
-125747
-151221
-146442
-121745
-123842
-126134
-153423
-152146
-123332
-123295
-126281
-153366
-153742
-126554
-125217
-126235
-154412
-157041
-127637
-124907
-126074
-153516
-156112
-127366
-124956
-126136
-151640
-153926
-128378
-125819
-126226
-152850
-155796
-128469
-124891
-125876
-152247
-155204
-125315
-123756
-125968
-151724
-154401
-129236
-125789
-125874
-150764
-154081
-127115
-125887
-126007
-151019
-155715
-128877
-125254
-125696
-151289
-156837
-127942
-125152
-125742
-150887
-154641
-124689
-123761
-125664
-150119
-154451
-124959
-122900
-125383
-148567
-152046
-124066
-122204
-125167
-148912
-155178
-126667
-123182
-125714
-149306
-156174
-129521
-125894
-125660
-149919
-158491
-128137
-124168
-125587
-150037
-160634
-130346
-125009
-125911
-149142
-157100
-124484
-119786
-123205
-134124
-125906
-100001
-108662
-123492
-146231
-153862
-127404
-123676
-125361
-148617
-159131
-129584
-124722
-125993
-148039
-158378
-129835
-124473
-126063
-147899
-158726
-128920
-123974
-126419
-147819
-156962
-125441
-122231
-126583
-147666
-157852
-127284
-123270
-126466
-146959
-156458
-126521
-122818
-126297
-145572
-152492
-124515
-121841
-125847
-144939
-153298
-121437
-116789
-124837
-144160
-151076
-118131
-114865
-124331
-142954
-148097
-119214
-116647
-124356
-142660
-150012
-118951
-117446
-124980
-143671
-154716
-125308
-120817
-125364
-144492
-160735
-131116
-124597
-125959
-144541
-160980
-131196
-123463
-125949
-144968
-161891
-130641
-123585
-126075
-144444
-161992
-131657
-124442
-125961
-143768
-161449
-131610
-123530
-125794
-143465
-160607
-130615
-124524
-126053
-143334
-161242
-131593
-123084
-125566
-142693
-160396
-131968
-125192
-125787
-142283
-160448
-132821
-123734
-125724
-141981
-159746
-131975
-124262
-125827
-142069
-160664
-131717
-123277
-125522
-142013
-161411
-131430
-123269
-125632
-141346
-159981
-130102
-122367
-125375
-140207
-157358
-128088
-120854
-125252
-140131
-157715
-128991
-121634
-125497
-140947
-162291
-133762
-124917
-125840
-140770
-163817
-134486
-124901
-125769
-140111
-161799
-134577
-125122
-125750
-140002
-163435
-135851
-124518
-125421
-137179
-145992
-106775
-97464
-116006
-133046
-145101
-122713
-119067
-125031
-138594
-161303
-134134
-123451
-125419
-138861
-163965
-135262
-123011
-125288
-138298
-162219
-134085
-123699
-125495
-137832
-161832
-132840
-121144
-125102
-137672
-160462
-133248
-122782
-125215
-137315
-159864
-130959
-120852
-124657
-136533
-160042
-129680
-118301
-124237
-135736
-156369
-128797
-117149
-123521
-135457
-155452
-125221
-114302
-122923
-134155
-149185
-121721
-113307
-122654
-133899
-151375
-123564
-113369
-122148
-134336
-155009
-127715
-116129
-123570
-135378
-160037
-132960
-120147
-124395
-135160
-163051
-137349
-122985
-125057
-135192
-161822
-135885
-120995
-124747
-135000
-162670
-136998
-123942
-125537
-134294
-159603
-136064
-122579
-125047
-134303
-160041
-136026
-122575
-124734
-133866
-159798
-136052
-122379
-125195
-133976
-160605
-135751
-121216
-124656
-133558
-159646
-135424
-120981
-124185
-133307
-161126
-137961
-121197
-124110
-133208
-160534
-138109
-123228
-124909
-133116
-160472
-137034
-121417
-124678
-133126
-160424
-134834
-119374
-124102
-132126
-157736
-135040
-122124
-124781
-132051
-157185
-133470
-117534
-123577
-131786
-157146
-134727
-120424
-124560
-132061
-159893
-138681
-121067
-124322
-132214
-161130
-139401
-122901
-124862
-131806
-159756
-139677
-122947
-125222
-131797
-162208
-140609
-121750
-123831
-128676
-138867
-104246
-85534
-108617
-127620
-152631
-133033
-117932
-123408
-130601
-157497
-136978
-120598
-124099
-130541
-159607
-140904
-121982
-123925
-130415
-158980
-138692
-120412
-124014
-130286
-158379
-137734
-120094
-123933
-129780
-156823
-137513
-120042
-123076
-129668
-157562
-136903
-118040
-123026
-129566
-155944
-135457
-115947
-121872
-129121
-153954
-134206
-114183
-121219
-128488
-152291
-129969
-109928
-119498
-128031
-149352
-127659
-109412
-118450
-127728
-150082
-128425
-111474
-120573
-127881
-152542
-134526
-115476
-121191
-128394
-156310
-138682
-119772
-123365
-128678
-157121
-139194
-118822
-123299
-128756
-156830
-143917
-122879
-123597
-128559
-158077
-142968
-120557
-123147
-128313
-157509
-143422
-121255
-123668
-128356
-156713
-141349
-120701
-124050
-128187
-157273
-142413
-120314
-122786
-127994
-158716
-144765
-120694
-123618
-127859
-155848
-142379
-122011
-123721
-127858
-156382
-143272
-121390
-123491
-127772
-155560
-143216
-121949
-123534
-127476
-156822
-145707
-121421
-123622
-127246
-155422
-146216
-123850
-124008
-127129
-155292
-143072
-119401
-122874
-127009
-154483
-143195
-117671
-120997
-126881
-153588
-141941
-117950
-121156
-126532
-153756
-145259
-121644
-122937
-127100
-155227
-147358
-122897
-123447
-126976
-154431
-144200
-122954
-124621
-126646
-156536
-149723
-124264
-124542
-126871
-154647
-147051
-119064
-119563
-124177
-134467
-109852
-85965
-104810
-124252
-151102
-143506
-119467
-121738
-126192
-153078
-145240
-120076
-123242
-126394
-153458
-149166
-122753
-122871
-126033
-152199
-146657
-122336
-123107
-125911
-152892
-147431
-120621
-121520
-125926
-151538
-145339
-119279
-121628
-125899
-152253
-146343
-119474
-121342
-125417
-150642
-145131
-117651
-120043
-125191
-149067
-142540
-115637
-117966
-124828
-147382
-138881
-111967
-116266
-124417
-146979
-140047
-110846
-114161
-124266
-145748
-137067
-111608
-117863
-124761
-148414
-143647
-116820
-118983
-125157
-149897
-147157
-120441
-121193
-125412
-150294
-149222
-121928
-122633
-125486
-150972
-150811
-123174
-123147
-125278
-150944
-152407
-124030
-123358
-125416
-149604
-151726
-123990
-121931
-125442
-149518
-150896
-123925
-122133
-125356
-149355
-150574
-123334
-122263
-125288
-148856
-151496
-125540
-122472
-125214
-150082
-154167
-123516
-123014
-125307
-148702
-152436
-124386
-122189
-125406
-148211
-152287
-125352
-123220
-125064
-148866
-154591
-125396
-122717
-125177
-148528
-155015
-124651
-121997
-125036
-148744
-155784
-127194
-122893
-125110
-147237
-153192
-123816
-121504
-124869
-146935
-153038
-123076
-120296
-124709
-146156
-152006
-122453
-121252
-125012
-147162
-157141
-128604
-123669
-125096
-147440
-157890
-128400
-123761
-125161
-147117
-157734
-127688
-123225
-125511
-146045
-156777
-130051
-125634
-125503
-145208
-150592
-113589
-105443
-118772
-132464
-126813
-107337
-114704
-124049
-144639
-155246
-126891
-122441
-124797
-144887
-156541
-126530
-121707
-124783
-145052
-158284
-128868
-123748
-124771
-144705
-158431
-127289
-121999
-124631
-143501
-155672
-125604
-120687
-124572
-143255
-155704
-126334
-121276
-124517
-142707
-154441
-124034
-119607
-124122
-141990
-152929
-123820
-117799
-123584
-141119
-150986
-120906
-115342
-123037
-140491
-149670
-116977
-113437
-122839
-139847
-148572
-118487
-113921
-122771
-139372
-148491
-121264
-116879
-123466
-141042
-155661
-124004
-118933
-124045
-141247
-158101
-126599
-120272
-124504
-141736
-160477
-131302
-123171
-124386
-140909
-158817
-131411
-123796
-124718
-140550
-159199
-130272
-121516
-124390
-140218
-158755
-129575
-121091
-124664
-140415
-158588
-128535
-122136
-124844
-140196
-159579
-128826
-120416
-124281
-139239
-158550
-130916
-121660
-124637
-139504
-158641
-128562
-120512
-124407
-139009
-159400
-130488
-120649
-124440
-139224
-160936
-131587
-121071
-124562
-138585
-157369
-131026
-123351
-124962
-138311
-158611
-130339
-119431
-124049
-138010
-158486
-130506
-120053
-124149
-137717
-157619
-127397
-118933
-124223
-136829
-155513
-128119
-119860
-124151
-137157
-158681
-130085
-120336
-124275
-137516
-161912
-133717
-121821
-124464
-137096
-160116
-133721
-119089
-123792
-136797
-159132
-131721
-123020
-124877
-135334
-149222
-112120
-95212
-112916
-127465
-133469
-115548
-113519
-122434
-135895
-159810
-132891
-118886
-123731
-135483
-159209
-131824
-118541
-123794
-135282
-157895
-131076
-119677
-123414
-134835
-156846
-128353
-117911
-123825
-134477
-157588
-130866
-118178
-123289
-133989
-156961
-131309
-116399
-122916
-133682
-155757
-129452
-115230
-122396
-133303
-152915
-126102
-115259
-122667
-132910
-153682
-124436
-110926
-120939
-132218
-150208
-121944
-107504
-120079
-131752
-149252
-120305
-110071
-121217
-131807
-152305
-124342
-112756
-122064
-131920
-154352
-131017
-117274
-122980
-132536
-156881
-133115
-117061
-122821
-132730
-159078
-134260
-120436
-124199
-132599
-158115
-134786
-119187
-123793
-132401
-159421
-136849
-119495
-123768
-132269
-159953
-136083
-119369
-124032
-131932
-158669
-135641
-119074
-123276
-131601
-158248
-135001
-119138
-123850
-130942
-158801
-136144
-118373
-122819
-130382
-158232
-135165
-118262
-122292
-130114
-157546
-134884
-118867
-122932
-129971
-157073
-136143
-119590
-122925
-129640
-156674
-136396
-119542
-122469
-129702
-159019
-137645
-118561
-122414
-129689
-157478
-136424
-119934
-122979
-129312
-156037
-134681
-116761
-121885
-129016
-154792
-136065
-116652
-121621
-128564
-154140
-134778
-120612
-123194
-128779
-157411
-138528
-119651
-122877
-128743
-157720
-138951
-119087
-122709
-128614
-157444
-139229
-121527
-123439
-128626
-158767
-142532
-121871
-123286
-128212
-152700
-124796
-95721
-107701
-122489
-135864
-118534
-109511
-119592
-127710
-155968
-138669
-119156
-122126
-127857
-157148
-140371
-118969
-122677
-127869
-156129
-140366
-119485
-122829
-127689
-156534
-139486
-118540
-122337
-127474
-154502
-138436
-118766
-121661
-127329
-154866
-140158
-117371
-121204
-127185
-154701
-138441
-116464
-120864
-126673
-152382
-136558
-114759
-119748
-126289
-150306
-132647
-111841
-119049
-126119
-149046
-130951
-109958
-117951
-125869
-148373
-129722
-108820
-117896
-125722
-148666
-131360
-111426
-118680
-126148
-152261
-137194
-116211
-120715
-126261
-152905
-140558
-120528
-122969
-126617
-154936
-143771
-121584
-122792
-126414
-154810
-145146
-120469
-122256
-126479
-154991
-144796
-120966
-122917
-126428
-155131
-145049
-118692
-120787
-126196
-153353
-144074
-121023
-122419
-126070
-154287
-144802
-119647
-121405
-126005
-153547
-146426
-120707
-122355
-125999
-153776
-146844
-121013
-122194
-125869
-153796
-146167
-120948
-122018
-125740
-153811
-147271
-121709
-122574
-125735
-153473
-146356
-119821
-121723
-125793
-152795
-146133
-120252
-121303
-125709
-152797
-146763
-120408
-121274
-125527
-151644
-144902
-119735
-120980
-125457
-152564
-146187
-118603
-120805
-125019
-150031
-143198
-115674
-118961
-124852
-149905
-142881
-117639
-120561
-124977
-151252
-147287
-121029
-121992
-125074
-151534
-149011
-122536
-121772
-125034
-150649
-150107
-122781
-121165
-125100
-150644
-149597
-123111
-122714
-125058
-146079
-133014
-95706
-99050
-116330
-132664
-124757
-108434
-116476
-124498
-149676
-147926
-120138
-120112
-124632
-149779
-149282
-121693
-121623
-124881
-149741
-149282
-121655
-120984
-124754
-149189
-150195
-123474
-121114
-124702
-149412
-151175
-122474
-120424
-124566
-148629
-150722
-120456
-119831
-124426
-147441
-147545
-119541
-119430
-124409
-146384
-144610
-117636
-117261
-123961
-145364
-142130
-112528
-115708
-123759
-144255
-141254
-111243
-114194
-123157
-144021
-141454
-110122
-112920
-123081
-144055
-143564
-114119
-115281
-123855
-145118
-146924
-118898
-119217
-124277
-146629
-151586
-122411
-118981
-124240
-146921
-153383
-124337
-120956
-124662
-145959
-152974
-124949
-122180
-124562
-145892
-153164
-123707
-120454
-124619
-146588
-154066
-122890
-120529
-124408
-145776
-154728
-124201
-121157
-124775
-145302
-152306
-122409
-120111
-124682
-144663
-151629
-123371
-121501
-124597
-144659
-154186
-124541
-119551
-124294
-144466
-154047
-124554
-120252
-124314
-144131
-154399
-126039
-121283
-124349
-144186
-155762
-126377
-119886
-124154
-144040
-155824
-125202
-122384
-124466
-143657
-155639
-124667
-119871
-124281
-143042
-154545
-125194
-120261
-124244
-142685
-154889
-125498
-120030
-123887
-142075
-153249
-122754
-118232
-123769
-141591
-151112
-121171
-119249
-124103
-141512
-154539
-125597
-119483
-124235
-141684
-157957
-128509
-121099
-124437
-141748
-156888
-127152
-120557
-124426
-141812
-158352
-128204
-122339
-124352
-140576
-150868
-110128
-99019
-115294
-127739
-126504
-105639
-110279
-122986
-139831
-155834
-127542
-119943
-124165
-140102
-155730
-126643
-119891
-124091
-139767
-156218
-127191
-119979
-124131
-139884
-155929
-124348
-118679
-124407
-139454
-157012
-126496
-119447
-124046
-138931
-155466
-125788
-117639
-123484
-138169
-154639
-125064
-117185
-123372
-137507
-152280
-122017
-115122
-122924
-136755
-150405
-120236
-111919
-121837
-136545
-149746
-117501
-109155
-121110
-135261
-146488
-116734
-110046
-121276
-135036
-146726
-117342
-111321
-122328
-135872
-152669
-123453
-115094
-123052
-136677
-157121
-127355
-118437
-123743
-136642
-156904
-129319
-118011
-123727
-136727
-159382
-130910
-117912
-123564
-136291
-157757
-129113
-118319
-124086
-136051
-157049
-130307
-118255
-123694
-136169
-159075
-130197
-118476
-123751
-135575
-158194
-130462
-118004
-123414
-135411
-158906
-130673
-117294
-123110
-135040
-158509
-131657
-119233
-123704
-135034
-158812
-129219
-117906
-123884
-134561
-158698
-132269
-118895
-123554
-134476
-159657
-131401
-117461
-123410
-134167
-158476
-132607
-118254
-123509
-133992
-158276
-132325
-119748
-123715
-133784
-158835
-131142
-117199
-123174
-133290
-156327
-129696
-116996
-122661
-132604
-154550
-129321
-115776
-122739
-132811
-156701
-133001
-118791
-123321
-133128
-160814
-135672
-120095
-123786
-133001
-159634
-134603
-119291
-123533
-132576
-159987
-135008
-119126
-123926
-132584
-159873
-133075
-112015
-119291
-126216
-129409
-100885
-92134
-115544
-130787
-155251
-132442
-118471
-123573
-131686
-157132
-133684
-118148
-123234
-131468
-157004
-133332
-118357
-123435
-131390
-157439
-135966
-118987
-123182
-131064
-157690
-134287
-118351
-123134
-130651
-155497
-132443
-115156
-122299
-130667
-155606
-131695
-116829
-122526
-130156
-154854
-132086
-113457
-121332
-129606
-152906
-128413
-111729
-120854
-129014
-150902
-126261
-108679
-119219
-128514
-149267
-124756
-105758
-117607
-128439
-150274
-125128
-109334
-119823
-128881
-152744
-130288
-112581
-121350
-129295
-156376
-135744
-117064
-121698
-129348
-156702
-137216
-117980
-122698
-129369
-159122
-139616
-117867
-123014
-129042
-157122
-137695
-118357
-123381
-129084
-157060
-139222
-118202
-122884
-129064
-157039
-138409
-119139
-123255
-129059
-158492
-139431
-117636
-123211
-128834
-157429
-140079
-118566
-122405
-128667
-156862
-140273
-117638
-122943
-128761
-157202
-140524
-118940
-124459
-128613
-156724
-139220
-118033
-124606
-129085
-156559
-140075
-118481
-124060
-129388
-157240
-141121
-120194
-124941
-129790
-156707
-139698
-117816
-124947
-129902
-155865
-137959
-114504
-123288
-129777
-156103
-139266
-114104
-122749
-129496
-158148
-145664
-122303
-125664
-129690
-157091
-143747
-119876
-125567
-129679
-157254
-143832
-121135
-125698
-129412
-156977
-144444
-122059
-125554
-129587
-156604
-140047
-113316
-118812
-125344
-131947
-106952
-89574
-113618
-127802
-154654
-142576
-117397
-123115
-128489
-155922
-142702
-118281
-124004
-128696
-155253
-143087
-117882
-123669
-128187
-156141
-145595
-119382
-123329
-127377
-154894
-145394
-120097
-122724
-126447
-152952
-143702
-119729
-123145
-126145
-152514
-141768
-116422
-121652
-126231
-150754
-141050
-115366
-120883
-125779
-150239
-137942
-110956
-119549
-125424
-148265
-136106
-111737
-117577
-125184
-147375
-133629
-108722
-116052
-124939
-147118
-135271
-108744
-118655
-125467
-149909
-141389
-115439
-120594
-125876
-151607
-145071
-120177
-122975
-126354
-152356
-147162
-119782
-122551
-126005
-152177
-148259
-120623
-122888
-126362
-152031
-147165
-118685
-122147
-126382
-152014
-148846
-120754
-123211
-126232
-151266
-148946
-121705
-123807
-126198
-150774
-148157
-121026
-122649
-126221
-151345
-149073
-121837
-122293
-126099
-150791
-147977
-119095
-122144
-126470
-150433
-148783
-122321
-121854
-126281
-150247
-149529
-121374
-122849
-126221
-150622
-150719
-120299
-122842
-126353
-150291
-149817
-121788
-123244
-126399
-149492
-148507
-121173
-121569
-126249
-149401
-148174
-118857
-120550
-125996
-147951
-146573
-118407
-120631
-125769
-148972
-151435
-120413
-120941
-126202
-149318
-150916
-123114
-123116
-126426
-148899
-150922
-121446
-123679
-126469
-148590
-152212
-123619
-122578
-126139
-148844
-152731
-123102
-120587
-124771
-136372
-119334
-87209
-97762
-121231
-145244
-148506
-122161
-122051
-126273
-147344
-152377
-123671
-121419
-126136
-148899
-155799
-124846
-121952
-126096
-147719
-152827
-123647
-122893
-126323
-147437
-152664
-123022
-121267
-125987
-145999
-150751
-121045
-118352
-125626
-146216
-151314
-121489
-119461
-125665
-145061
-149184
-118441
-118056
-125276
-143800
-146819
-115604
-115301
-124494
-142784
-145281
-113964
-112646
-123862
-141175
-141348
-112625
-113599
-123789
-140906
-141969
-112567
-112232
-123774
-141609
-145314
-117292
-115191
-124401
-143327
-150534
-120922
-119052
-125399
-143631
-153529
-123257
-121891
-125460
-143541
-154750
-125816
-120529
-125081
-143267
-154288
-124958
-121373
-125434
-143052
-155770
-123784
-117154
-124994
-142684
-154544
-124734
-119850
-124934
-142556
-155095
-124875
-119077
-124846
-141885
-155064
-125389
-118736
-124730
-141964
-154657
-125024
-119476
-124615
-141566
-156477
-126646
-120239
-124902
-140861
-154307
-127507
-120446
-124641
-140841
-155213
-125414
-120600
-124964
-140678
-155973
-127150
-119702
-124710
-140295
-154914
-124061
-117384
-124497
-140075
-155385
-123768
-115166
-123661
-139406
-153268
-122897
-115129
-123002
-139356
-156010
-124867
-117149
-124466
-139953
-157603
-127712
-119461
-124408
-139740
-158969
-128427
-119801
-124772
-139332
-158517
-129721
-120384
-124711
-139094
-158697
-126580
-113011
-121463
-130015
-124270
-91664
-91869
-117557
-136387
-152211
-124874
-117206
-124354
-137835
-155716
-126647
-117063
-124314
-137419
-153920
-125999
-119047
-124999
-137802
-157584
-127328
-117106
-124117
-137351
-156056
-127904
-117361
-123942
-136667
-155778
-126857
-115847
-123671
-136406
-154486
-124232
-114190
-123162
-135831
-152947
-123474
-112961
-122779
-135138
-151427
-123108
-112127
-121817
-134306
-148549
-118484
-109683
-121046
-133612
-146646
-117392
-108468
-120787
-133648
-148241
-118853
-108634
-121084
-133977
-151795
-123533
-113394
-122219
-134971
-157907
-128847
-113503
-122954
-134535
-157392
-130376
-118056
-123930
-134511
-157519
-128328
-116989
-124351
-134078
-157566
-128284
-117077
-124596
-134225
-158329
-130085
-115769
-123544
-134236
-157867
-131844
-117442
-123426
-133931
-156400
-128877
-117872
-124441
-133557
-158379
-129431
-115240
-124227
-133122
-156771
-129627
-117167
-124416
-133213
-156027
-129420
-114754
-123083
-133422
-158427
-130556
-116842
-124438
-133031
-156754
-129896
-115771
-124139
-132897
-158482
-130466
-115959
-124709
-132039
-154501
-129900
-115506
-124150
-132001
-153089
-126171
-113350
-123243
-131986
-154221
-127073
-111997
-122857
-132020
-158689
-134445
-117899
-124680
-132032
-157057
-134026
-118865
-125244
-131914
-158254
-134731
-117030
-124471
-131796
-157684
-135776
-119331
-124937
-131837
-154922
-124701
-100378
-113399
-122299
-125752
-103919
-99217
-120371
-131089
-155669
-133054
-115571
-123809
-131101
-155518
-134624
-117286
-124257
-131187
-156538
-134257
-116482
-124221
-131089
-156489
-134739
-116262
-123833
-130669
-155747
-134441
-114931
-123724
-130624
-156363
-133087
-113520
-122743
-130377
-152696
-131320
-113577
-122679
-129867
-152535
-130937
-111896
-121691
-129581
-150497
-127492
-108810
-120924
-129108
-148339
-124546
-106027
-119248
-128789
-147262
-123297
-104896
-118931
-128583
-148489
-126423
-106786
-119402
-129179
-151782
-130993
-111331
-121636
-129597
-155332
-136657
-115905
-122866
-129547
-155482
-138364
-116305
-123665
-129572
-154896
-137972
-117431
-123689
-129369
-155011
-138626
-118537
-123026
-129254
-154516
-137939
-118653
-123970
-129224
-154741
-138087
-117038
-122666
-128984
-155369
-138706
-116062
-122391
-128856
-154701
-139889
-116206
-120857
-128606
-154234
-139170
-116826
-122374
-128483
-156139
-141211
-116868
-122096
-128327
-154696
-139210
-116362
-121999
-128372
-153599
-138094
-114704
-121147
-127966
-152771
-139634
-115999
-120331
-127539
-151030
-135862
-112695
-120851
-127449
-152397
-138472
-114823
-121137
-127716
-154664
-142399
-117166
-122033
-127521
-154520
-143470
-120204
-122931
-127607
-154036
-145162
-119982
-122581
-127398
-153949
-145995
-119196
-121130
-125600
-138490
-109520
-81245
-100769
-122361
-148422
-137982
-116669
-121036
-126643
-152770
-142372
-114994
-119355
-126518
-153112
-146170
-119769
-120679
-126537
-152440
-144730
-118500
-120797
-126507
-151899
-144222
-118307
-121522
-126324
-151324
-144126
-117452
-120062
-126036
-151312
-145079
-118297
-120023
-126081
-148988
-141136
-115385
-118910
-125524
-148157
-140203
-113554
-116472
-125117
-146543
-136519
-107076
-112871
-124724
-145173
-136404
-107774
-114089
-124313
-145372
-135872
-110332
-114861
-124699
-146263
-139357
-114030
-116929
-125237
-148933
-145379
-118390
-119903
-125522
-149757
-147376
-119847
-120367
-125532
-149282
-146977
-121249
-122054
-125837
-149586
-149237
-120647
-120265
-125506
-149231
-148765
-120296
-120542
-125591
-148546
-147537
-119854
-119929
-125156
-148087
-148714
-120041
-120101
-125154
-147751
-148098
-120714
-119827
-125176
-148124
-149437
-120187
-119964
-125212
-148008
-149604
-120419
-119736
-125093
-147560
-150342
-119574
-119345
-125067
-146706
-148297
-118649
-118782
-124927
-145917
-146487
-116814
-115940
-124130
-146057
-147507
-116680
-115646
-124219
-144861
-148152
-120824
-118959
-124898
-146529
-152161
-122821
-120672
-124894
-146262
-152219
-121137
-118589
-124950
-146472
-152576
-121631
-119806
-125055
-145356
-150556
-119551
-114607
-122182
-130764
-114794
-87521
-97966
-120776
-142856
-147960
-120223
-117921
-124197
-144468
-153451
-122697
-118332
-124326
-144178
-152367
-122654
-118787
-124338
-143564
-150462
-122396
-118682
-124225
-143094
-150532
-121400
-118087
-124101
-142466
-150504
-122881
-117369
-123542
-142169
-150768
-122232
-117461
-123826
-141309
-148428
-118203
-115664
-123437
-140581
-146050
-114277
-111002
-122776
-138643
-142721
-112174
-109544
-121827
-137783
-140287
-111676
-108586
-122081
-138577
-141325
-110471
-109706
-122433
-139605
-147607
-118141
-114277
-123479
-139887
-150622
-122922
-117141
-123929
-140757
-153354
-123508
-116829
-123694
-140219
-153259
-124867
-118753
-123984
-140604
-155749
-125590
-117779
-123814
-140130
-153931
-123356
-116128
-123394
-139808
-154469
-124318
-117183
-123822
-139348
-154210
-124481
-115947
-123521
-138923
-157372
-129278
-116142
-123341
-139112
-155479
-123968
-116751
-123644
-138874
-155187
-125447
-117870
-123812
-138146
-154566
-125160
-117146
-123571
-137620
-152778
-123071
-115496
-122939
-137372
-152049
-121102
-116185
-123001
-136763
-152486
-122715
-114144
-122797
-137240
-155887
-126574
-117251
-123547
-137504
-157169
-128682
-117495
-123372
-137046
-156525
-127859
-117367
-123494
-137163
-159956
-130037
-119473
-124206
-135591
-150381
-112742
-95622
-111310
-123633
-126869
-106449
-105784
-121109
-135708
-155715
-126223
-115119
-123004
-135124
-154652
-127979
-117116
-123253
-135305
-157322
-128897
-115803
-123169
-135134
-155782
-127642
-115948
-122804
-134797
-155146
-126545
-114990
-122691
-134373
-154452
-126662
-113963
-122270
-133895
-154214
-127599
-114666
-122117
-133685
-153236
-122058
-110562
-122047
-132844
-149441
-122027
-110009
-120849
-132186
-146284
-116969
-106406
-119521
-131917
-148277
-116337
-102896
-119225
-132129
-149530
-121022
-109215
-120748
-132368
-153873
-126648
-112751
-122126
-133015
-155587
-128665
-114706
-122665
-132803
-155947
-130732
-116358
-122543
-132865
-157022
-131500
-115704
-122398
-132489
-158792
-132262
-115967
-122798
-132044
-155930
-131313
-116477
-122616
-131775
-155986
-132898
-116288
-122562
-131764
-155651
-132179
-117574
-122929
-131466
-156509
-131276
-114945
-122558
-131082
-156986
-135154
-118548
-123372
-131227
-157402
-133676
-116142
-122724
-130806
-154729
-132217
-115531
-121751
-130509
-156171
-133930
-113327
-121065
-129932
-153009
-127524
-112146
-121557
-130075
-154855
-130770
-115026
-122624
-130449
-157949
-137114
-117254
-122422
-129904
-154986
-132461
-117737
-123237
-130275
-157354
-136414
-118998
-122456
-130106
-157377
-136793
-114261
-119481
-126066
-131825
-99104
-82682
-106894
-127247
-150621
-130651
-115003
-122099
-129179
-154594
-134087
-115252
-121866
-129032
-155107
-136194
-118052
-121711
-128873
-157419
-136794
-115549
-121613
-128875
-155711
-135547
-115066
-121471
-128509
-155302
-136712
-116316
-121231
-127997
-153743
-136239
-114656
-120931
-127958
-153035
-132915
-111634
-119999
-127516
-151212
-130554
-108871
-117986
-127111
-147874
-127141
-105851
-116036
-126801
-147618
-126466
-104187
-115629
-126389
-147936
-128009
-107650
-117374
-126687
-150876
-133782
-112832
-119424
-127195
-152580
-135585
-115248
-121580
-127311
-153960
-138824
-116122
-121280
-127296
-155029
-141067
-117617
-121099
-126920
-155603
-143864
-118645
-121322
-126596
-152948
-140771
-118522
-121633
-126842
-153982
-141000
-117488
-121296
-126613
-153580
-140701
-116326
-120626
-126399
-152666
-141479
-118249
-122234
-126634
-154461
-143157
-117792
-120829
-126287
-153400
-143253
-118212
-120751
-126373
-153729
-143501
-117596
-120852
-126128
-152283
-141661
-115882
-119386
-125679
-153017
-141314
-114550
-118605
-125619
-150009
-139474
-114910
-118595
-125532
-151207
-141982
-117919
-120490
-126099
-153181
-146562
-120206
-120711
-125822
-152483
-145918
-119539
-120169
-125478
-152028
-147101
-120679
-120936
-125676
-152214
-143249
-109911
-110275
-120562
-126814
-108645
-91923
-110084
-123956
-149479
-143956
-119141
-120259
-124603
-150410
-145766
-118702
-119577
-124599
-150205
-146251
-118437
-119534
-124346
-150026
-147412
-118416
-119774
-124127
-148907
-145652
-118821
-119591
-123866
-148774
-145376
-118261
-118569
-123526
-147341
-143742
-116764
-117886
-123174
-145967
-141241
-113989
-115934
-122723
-145285
-138687
-111106
-115777
-122362
-143920
-137273
-109267
-113733
-122069
-142311
-136761
-108388
-112114
-121757
-143156
-138331
-109877
-112966
-122134
-144874
-143455
-116755
-117547
-122904
-146399
-146922
-118416
-117961
-122750
-146144
-150254
-122536
-119014
-122993
-146705
-149411
-120006
-119079
-123371
-146499
-150062
-121373
-119030
-122779
-146131
-151694
-122122
-118939
-123007
-145597
-150270
-122922
-118522
-122778
-145209
-150045
-121349
-120594
-123305
-145132
-151322
-121312
-119122
-122958
-144710
-150581
-122374
-119466
-123154
-145068
-151407
-123051
-119136
-123001
-144682
-151714
-122325
-119629
-123355
-144522
-151836
-121654
-118015
-122871
-143966
-151027
-120702
-116884
-122834
-143186
-148681
-117191
-116737
-122836
-142057
-147927
-119064
-118244
-123372
-143501
-152602
-123219
-118984
-123262
-143074
-154170
-126501
-119818
-123246
-143589
-155553
-124719
-119408
-123202
-142906
-154756
-125527
-119877
-123034
-139559
-139049
-97019
-91176
-112979
-132019
-134929
-114559
-114807
-122597
-141277
-152207
-120673
-116093
-122944
-141536
-154342
-125022
-118795
-122724
-141022
-154344
-125280
-117455
-122042
-140480
-154726
-123860
-117520
-122036
-139786
-154201
-123779
-116286
-121731
-138766
-151994
-122238
-116134
-121325
-138849
-152207
-120382
-114483
-121240
-137893
-150846
-118627
-111513
-120691
-136750
-146981
-115908
-109870
-120219
-135676
-143640
-113819
-109636
-120495
-135773
-145124
-114027
-108191
-120230
-136487
-147545
-117810
-111350
-121455
-137332
-151157
-121960
-116074
-122834
-138651
-156114
-125172
-116446
-123331
-138555
-155105
-123691
-116906
-123899
-138333
-155740
-127633
-117902
-124114
-138735
-155159
-125513
-117001
-124000
-138535
-156834
-127357
-118201
-124337
-137906
-156395
-128710
-116971
-123836
-137986
-156116
-127416
-117066
-124301
-137777
-155860
-128447
-117341
-124089
-137942
-156655
-126876
-116427
-123717
-137587
-156706
-128214
-117329
-123984
-137505
-156871
-127096
-116559
-123592
-136896
-156347
-126929
-117001
-123692
-136162
-155347
-126384
-115911
-122805
-135112
-155178
-124924
-112486
-120870
-133927
-152926
-124433
-114769
-121529
-133867
-155636
-130001
-115816
-121379
-133558
-157721
-131477
-119526
-122300
-133173
-156716
-129186
-117104
-121464
-132757
-157879
-130056
-117374
-121607
-132085
-154958
-122039
-101272
-113331
-123149
-124921
-99469
-98693
-117698
-130894
-154502
-128951
-117096
-121226
-131024
-155858
-128556
-116130
-121039
-131415
-156871
-129450
-116222
-120926
-131010
-155485
-130805
-117564
-121000
-131021
-155786
-130482
-114732
-121038
-130951
-154347
-128439
-114763
-121001
-130890
-155446
-129703
-113999
-120833
-130670
-155359
-127796
-112912
-120487
-130072
-153574
-127527
-112157
-119729
-129239
-148491
-123652
-107653
-117874
-128963
-146866
-120662
-104409
-117306
-128896
-148372
-122891
-108926
-119004
-129471
-152404
-127496
-113707
-120915
-129980
-155804
-132207
-115592
-121631
-129952
-156241
-133424
-118188
-121907
-129842
-155544
-134645
-116412
-121271
-129981
-156629
-132949
-116858
-122475
-129771
-156209
-133902
-115729
-121772
-129678
-157109
-135851
-118041
-122231
-129319
-154571
-135122
-117904
-122656
-129402
-155147
-133982
-118141
-122883
-129139
-156628
-135813
-117962
-122589
-129106
-154889
-136136
-117658
-122837
-129189
-154111
-133411
-115549
-122307
-129049
-155490
-135251
-117877
-122482
-128699
-155028
-135810
-116721
-122222
-128919
-156042
-136167
-116261
-121396
-128624
-154227
-133609
-113986
-121109
-128683
-152061
-132621
-113302
-120377
-128954
-153792
-133900
-116917
-122729
-129400
-156190
-136639
-117341
-122342
-129139
-155572
-137756
-118348
-123016
-128914
-157387
-141901
-118527
-122679
-128676
-157817
-142687
-119912
-122143
-126819
-139473
-106847
-81557
-101501
-123469
-147169
-131414
-114804
-121051
-127500
-153214
-137676
-115181
-120764
-127499
-154052
-137246
-115613
-121689
-127719
-155318
-140436
-117779
-121931
-127337
-153911
-138640
-116404
-120869
-127351
-154501
-139782
-115373
-120264
-126985
-153356
-138497
-114219
-120056
-126586
-151726
-138204
-115492
-120257
-126244
-151041
-136063
-111951
-117056
-125804
-149170
-132490
-109011
-117266
-125494
-147469
-130216
-106994
-115540
-125204
-146237
-129920
-108271
-115875
-125245
-148326
-136525
-112557
-118716
-125960
-152279
-141022
-116382
-119983
-126374
-152855
-142287
-118378
-122006
-126345
-153069
-145578
-117855
-120505
-126281
-151892
-143312
-118665
-121100
-126235
-152964
-144677
-118709
-121710
-126479
-152407
-144927
-117844
-119919
-126126
-151889
-145299
-120053
-120750
-125815
-151786
-145370
-117629
-121160
-126148
-152102
-144761
-117226
-121102
-125907
-151174
-145598
-118259
-120562
-125956
-150544
-144783
-118445
-120394
-125856
-151153
-145917
-119177
-119829
-125756
-151660
-147515
-119604
-120786
-125847
-151357
-147627
-118601
-119590
-125695
-149996
-147700
-121220
-120663
-125542
-150210
-146521
-118684
-120031
-125454
-150479
-146510
-118427
-119687
-125436
-147669
-142202
-116985
-118889
-125282
-149280
-147910
-118057
-119724
-125556
-150916
-151167
-121652
-121139
-125487
-150183
-149964
-122101
-121514
-125342
-149003
-150277
-123551
-122611
-125305
-148883
-150804
-117554
-114193
-121847
-129754
-111351
-86835
-104275
-122589
-146286
-144946
-117874
-120022
-124709
-147312
-149809
-120372
-119907
-124707
-147489
-149090
-119727
-119041
-124551
-146480
-149322
-121152
-119987
-124579
-146644
-149181
-119581
-118883
-124415
-145466
-149632
-120342
-118556
-124482
-145393
-147634
-118027
-118093
-124118
-144744
-146144
-116250
-114919
-123657
-143624
-144206
-114241
-113411
-123166
-141544
-141478
-112667
-111811
-122572
-141392
-140741
-111429
-110998
-122276
-140776
-139889
-110450
-111206
-122732
-142387
-146090
-115315
-113708
-123335
-143237
-149303
-120146
-118039
-124039
-143282
-150819
-120852
-119910
-124433
-144085
-152888
-122189
-117530
-123933
-144161
-154029
-124951
-118843
-123940
-143302
-152092
-121828
-118829
-123986
-142617
-152329
-123806
-119379
-123895
-142943
-153942
-122892
-118926
-124239
-142598
-153369
-125203
-119011
-123716
-142903
-155492
-124318
-118497
-123947
-142306
-154561
-123397
-117524
-123632
-142124
-155581
-123924
-118496
-123926
-141482
-153926
-123659
-119479
-124241
-140901
-153206
-124589
-118607
-123999
-141296
-154427
-124965
-118410
-123892
-141052
-154433
-124066
-118049
-124069
-140963
-156351
-125239
-118376
-124029
-140449
-154752
-124211
-117475
-123732
-139573
-152697
-122816
-116699
-123442
-139397
-152581
-122346
-116419
-123604
-140714
-160499
-126561
-119600
-124224
-139688
-157201
-126816
-119159
-124081
-139251
-155194
-126327
-119951
-124356
-139330
-158504
-129529
-120604
-124146
-137458
-148812
-107604
-93126
-111146
-123916
-127099
-108077
-108972
-121800
-137932
-156547
-126548
-117336
-123061
-137236
-154694
-126489
-117541
-123437
-137415
-155962
-127395
-117431
-123280
-136732
-155770
-126687
-117581
-123467
-136700
-155626
-126554
-116652
-123262
-136257
-154133
-125979
-115439
-122994
-135746
-153918
-124345
-114381
-122562
-135252
-152215
-122415
-113209
-121957
-134594
-151691
-120583
-108520
-120285
-133332
-145807
-116734
-107372
-120211
-133329
-147916
-117659
-107567
-119713
-132839
-147717
-119224
-109598
-120792
-133991
-152399
-123896
-112266
-121916
-134546
-155490
-127451
-114930
-122834
-134567
-157606
-130135
-117901
-123369
-134652
-157939
-131412
-117610
-123241
-133966
-157322
-130163
-116800
-123378
-133989
-156793
-130511
-116974
-122972
-133509
-157554
-131392
-117756
-123135
-133263
-157250
-131256
-117221
-123096
-133173
-157467
-131655
-115426
-122302
-132844
-157437
-129993
-116862
-123195
-132539
-156949
-132671
-117851
-122771
-132317
-156653
-131699
-116932
-122819
-132186
-157554
-132349
-115787
-122464
-131822
-158075
-134755
-117284
-121925
-131411
-157612
-131624
-116141
-122079
-130731
-157825
-133361
-118408
-122372
-130352
-157113
-132835
-116497
-121948
-130129
-156508
-131858
-116529
-121750
-129782
-154294
-128566
-111898
-120544
-129687
-154251
-131107
-115848
-121813
-130211
-156801
-135580
-118634
-122780
-130549
-158857
-136799
-120142
-123757
-130553
-160224
-137199
-118172
-122946
-130694
-159832
-138833
-119162
-122775
-128776
-141397
-105528
-82823
-103709
-124906
-147046
-128418
-112704
-121725
-130603
-157189
-135612
-116736
-122802
-130507
-157600
-136448
-117579
-123308
-130566
-157921
-135900
-115329
-122406
-130312
-156513
-135215
-116245
-122601
-130098
-155643
-135256
-115762
-122274
-129548
-154814
-134852
-114934
-120998
-129207
-154920
-134096
-111202
-119770
-128692
-152818
-130467
-109589
-119248
-127892
-149828
-128646
-107099
-117781
-127272
-148581
-126423
-103968
-116176
-127399
-148115
-125174
-104887
-116529
-127127
-148874
-127619
-109029
-118829
-127409
-154098
-135681
-113274
-120537
-127888
-153404
-136432
-115322
-121356
-127853
-155223
-139678
-116879
-121581
-127631
-155236
-139492
-117997
-122037
-127569
-154245
-139285
-117364
-121434
-127416
-154262
-138972
-115728
-121161
-127465
-154001
-140201
-117557
-121503
-127156
-154506
-141451
-117692
-121859
-127056
-154869
-141255
-117355
-121386
-126837
-153344
-141026
-117269
-120645
-126634
-153107
-140086
-116910
-121918
-126676
-153902
-142352
-117405
-120384
-126304
-154796
-145296
-119382
-121181
-126450
-153749
-143218
-117534
-120811
-126192
-153197
-142352
-116937
-121121
-126197
-152798
-142162
-117514
-121306
-126106
-152159
-141126
-117065
-120520
-125863
-151487
-140588
-114238
-119919
-125572
-149975
-139373
-114409
-117944
-125434
-151245
-142736
-119058
-120827
-125715
-152216
-144121
-119397
-120745
-125876
-153135
-146796
-119634
-121281
-125667
-151466
-146427
-120746
-121238
-125702
-152664
-146957
-114894
-114671
-122507
-130604
-108299
-84070
-102046
-122676
-147367
-141958
-118338
-119742
-124841
-150154
-145285
-118175
-119556
-125094
-149492
-144412
-117809
-119549
-124872
-150394
-146904
-117848
-119555
-124861
-149582
-144923
-117371
-119363
-124569
-149629
-146683
-113897
-116194
-124680
-148412
-144576
-117531
-118188
-124156
-148045
-144445
-115686
-117378
-123962
-145987
-140551
-113157
-115642
-123807
-145486
-139372
-109625
-113266
-123138
-143491
-135962
-107369
-113727
-123325
-144214
-137547
-108629
-113257
-123386
-144124
-140896
-114286
-116370
-123980
-146039
-145526
-118209
-118709
-124274
-147246
-148368
-119296
-118994
-124446
-147700
-150386
-120073
-119381
-124461
-146888
-150311
-120725
-119701
-124587
-147223
-150788
-121470
-120871
-124511
-146047
-149241
-121465
-119484
-124186
-145505
-150112
-123042
-120479
-124210
-146311
-151364
-121436
-119111
-124052
-145448
-150724
-121592
-119464
-124014
-145973
-152536
-122926
-119729
-123878
-145082
-152209
-123897
-119664
-123851
-143688
-149916
-123356
-121303
-124137
-144417
-152620
-123873
-119557
-123631
-145091
-154262
-123207
-119344
-123794
-143969
-153197
-123772
-118649
-123659
-143007
-150531
-121541
-118797
-123897
-142312
-149342
-120771
-116936
-123272
-142253
-149827
-119290
-115645
-123282
-142123
-151350
-124482
-119289
-123711
-143091
-155647
-125520
-120259
-123873
-143059
-155991
-124871
-118932
-123776
-142632
-155587
-124364
-117877
-123877
-142518
-155091
-120202
-109406
-119632
-127176
-115515
-90864
-98629
-120066
-140122
-151417
-123646
-116721
-123261
-140275
-152414
-123464
-117831
-123631
-141032
-154326
-123880
-117386
-123627
-140682
-153633
-122161
-117542
-123864
-139706
-152027
-121638
-117429
-123636
-139684
-152361
-121303
-115949
-123395
-139212
-151327
-121062
-115289
-122983
-138406
-151132
-120724
-113137
-122384
-137944
-148922
-117159
-110696
-121589
-136669
-145446
-113862
-108507
-120974
-135437
-143146
-111962
-106916
-120839
-135783
-144429
-113208
-107911
-121072
-136165
-147182
-118719
-112701
-122275
-137361
-153584
-123272
-114963
-122777
-137386
-155742
-125454
-117215
-123379
-137134
-154991
-127537
-117276
-122874
-137287
-156736
-127738
-117467
-122851
-136720
-155797
-126031
-115761
-122887
-136714
-156188
-126815
-117629
-123516
-136304
-154342
-125158
-116914
-123448
-135777
-155514
-127605
-117000
-123133
-136071
-156099
-127552
-116735
-123017
-135767
-156036
-127276
-115795
-122878
-135621
-156269
-127756
-116159
-123086
-135286
-156610
-129279
-114868
-122567
-135314
-158633
-129165
-115675
-122679
-134769
-155410
-127172
-115492
-122790
-134831
-153252
-124091
-112421
-122204
-133646
-152484
-123232
-113212
-122420
-134048
-156439
-128552
-115782
-123014
-133961
-157108
-130894
-116263
-122847
-133714
-156809
-130030
-116318
-123144
-133553
-157835
-131570
-117248
-122980
-131581
-143267
-105080
-84021
-104487
-124158
-136686
-115522
-108854
-120874
-132553
-156042
-129012
-114048
-121699
-132186
-155180
-129349
-114492
-122104
-132142
-154809
-128981
-114024
-121976
-131615
-153855
-127734
-112517
-121297
-131791
-154399
-128415
-113080
-121393
-131242
-152529
-127532
-112842
-121397
-130858
-152304
-125641
-109243
-120197
-130330
-150540
-123914
-108197
-119331
-129848
-148316
-121774
-104519
-117508
-129270
-146018
-118712
-101644
-116193
-128747
-144847
-116754
-101796
-116046
-128699
-147938
-122392
-106292
-118073
-129437
-151029
-127214
-110812
-120116
-129608
-152412
-129547
-112977
-120869
-129695
-153909
-130789
-111601
-120557
-129782
-154311
-131769
-114022
-121657
-129711
-154252
-131476
-112844
-120971
-129401
-154415
-132576
-113628
-121325
-129130
-154321
-132548
-114914
-121686
-128946
-154647
-134367
-114081
-120946
-128896
-154693
-133106
-114281
-121309
-128641
-153131
-133754
-113819
-120381
-128502
-153278
-132141
-113888
-120696
-128281
-153832
-133059
-111794
-119597
-127740
-151278
-130035
-112944
-119763
-127491
-151139
-131242
-109674
-118600
-127299
-149975
-130064
-110639
-119556
-127784
-152562
-133549
-112510
-120096
-127511
-152584
-135307
-112721
-118990
-127385
-152128
-133826
-112531
-119465
-127237
-153222
-135692
-109076
-115499
-123297
-126399
-95906
-78152
-103367
-124386
-146766
-129528
-110231
-119740
-126554
-152262
-134236
-110211
-118558
-126300
-151086
-134941
-110644
-117555
-126213
-151009
-134155
-108954
-116801
-126292
-150356
-132534
-110565
-118175
-126114
-149306
-133771
-109098
-117070
-125846
-148941
-133372
-109185
-116484
-125570
-147819
-131850
-106393
-114717
-125191
-146609
-130197
-104746
-113239
-124937
-145344
-127760
-103140
-111711
-124082
-142866
-129284
-103916
-111478
-124334
-143811
-126785
-101082
-111846
-124627
-146662
-132152
-106044
-114500
-125272
-149092
-135847
-110224
-116407
-125456
-149299
-138881
-113235
-117829
-125469
-149299
-138220
-113479
-117779
-125448
-150297
-140978
-113333
-117617
-125279
-148669
-138796
-113796
-117861
-125199
-149703
-140620
-112367
-116681
-125025
-149581
-141502
-112259
-115847
-124749
-148684
-142336
-113527
-116882
-124701
-147966
-141409
-113096
-116171
-124846
-148098
-141707
-113764
-116049
-124520
-147981
-143086
-114860
-116116
-124222
-146345
-138918
-110519
-114672
-124001
-146381
-138848
-109594
-113463
-123501
-144399
-136922
-108523
-113342
-123939
-147279
-142947
-114227
-116711
-124367
-147542
-144566
-114666
-115832
-124389
-147141
-144554
-114208
-114991
-124027
-147085
-144309
-115281
-117158
-124322
-144356
-135369
-98540
-96788
-112126
-121622
-113673
-95763
-107253
-122430
-143574
-141037
-114229
-113092
-123227
-145262
-143304
-113066
-113471
-123314
-144006
-140799
-113026
-115796
-123530
-144169
-141937
-111579
-113506
-123400
-142736
-139908
-112444
-111253
-122779
-143113
-143378
-112869
-111263
-122722
-142577
-141312
-109503
-110854
-122567
-140941
-137091
-106791
-110578
-122391
-139527
-136685
-105104
-105631
-120809
-137840
-134327
-103679
-104137
-121026
-137690
-132475
-101406
-103318
-120404
-137848
-134853
-104124
-105021
-121324
-139236
-140341
-108584
-110984
-122137
-141330
-143241
-114251
-111203
-122429
-141028
-145631
-116831
-113021
-122727
-141276
-146156
-113037
-110696
-122261
-141844
-150019
-116980
-109758
-121953
-140681
-147114
-116101
-111277
-122189
-140223
-141691
-116095
-111106
-122431
-140357
-148261
-114056
-110093
-122197
-140136
-147041
-114218
-110824
-122554
-139441
-146311
-114851
-111065
-122439
-140149
-147336
-114094
-110111
-121935
-138806
-144593
-111801
-110878
-121690
-138406
-142885
-109858
-107638
-120993
-137458
-143520
-111809
-109703
-120757
-138345
-145548
-115766
-112813
-122380
-138370
-150199
-118041
-111044
-121677
-138884
-150352
-118799
-112342
-121769
-137020
-149652
-122496
-114165
-122047
-135341
-135711
-91630
-78624
-104732
-121850
-127955
-105709
-102559
-120649
-136544
-147172
-116301
-109719
-121576
-136546
-148240
-117543
-111507
-122112
-136910
-150919
-119099
-111605
-122192
-136437
-148598
-118292
-110735
-121598
-136323
-148938
-118165
-110847
-121447
-135454
-147892
-117765
-110354
-121206
-135641
-149324
-118769
-110119
-120750
-133884
-145104
-116662
-107319
-120683
-133824
-143549
-113787
-104904
-118439
-132757
-142894
-109942
-99159
-118370
-132430
-143727
-116737
-104491
-118919
-133671
-146047
-112771
-102554
-120574
-133926
-151455
-123034
-109442
-121305
-134140
-151681
-126101
-110226
-121199
-134191
-151839
-122281
-109539
-121594
-134499
-154136
-123552
-112136
-121434
-133861
-152061
-123194
-112386
-121874
-133605
-152377
-123318
-109171
-120870
-133362
-151758
-123483
-110288
-120730
-132867
-149647
-119142
-107397
-120877
-132454
-150358
-121232
-107725
-119596
-132251
-150342
-121609
-108127
-120100
-132063
-150248
-120919
-106232
-118976
-131655
-148581
-120019
-104708
-118828
-130572
-145202
-117972
-104021
-118270
-130765
-148027
-121517
-109670
-120346
-131452
-151679
-125241
-108196
-119470
-131091
-150153
-126120
-108756
-119302
-130937
-151526
-124903
-106959
-118942
-130964
-151338
-124031
-103235
-115341
-123166
-120063
-86450
-74406
-105244
-127274
-143379
-118076
-103635
-117222
-129422
-148710
-123989
-104773
-117173
-129575
-149414
-124052
-105584
-117136
-129489
-149629
-121436
-103884
-117585
-129006
-149536
-123487
-102974
-117234
-128612
-146266
-120126
-104812
-117746
-128304
-146938
-119381
-100926
-114276
-127893
-145437
-118284
-100067
-115147
-127637
-144054
-118381
-99436
-114432
-127009
-141371
-113985
-95087
-112644
-126677
-140146
-112744
-94307
-110986
-125824
-138568
-113969
-96799
-112292
-126716
-142481
-116835
-100819
-115257
-127714
-148279
-123789
-103916
-115394
-127837
-150303
-126382
-105271
-116959
-127815
-148866
-126111
-107141
-117415
-127714
-149162
-126029
-105064
-116252
-127459
-147607
-126134
-108447
-117327
-127147
-149137
-128892
-107425
-116779
-126936
-149089
-128017
-106145
-116721
-126943
-148879
-129056
-106696
-116896
-126852
-149706
-130077
-108341
-117338
-126616
-148530
-130090
-106958
-115325
-126343
-148894
-127754
-105031
-116435
-126118
-147285
-126066
-102881
-114234
-125852
-147782
-129473
-104500
-115619
-126294
-149352
-131801
-107363
-116836
-126256
-148642
-130009
-106191
-115071
-125901
-148014
-130587
-105697
-114444
-125646
-147556
-131625
-106531
-114621
-123751
-128964
-95194
-67996
-88827
-114919
-136135
-120725
-99786
-112578
-125371
-145425
-127334
-104024
-112894
-125386
-147071
-129924
-104188
-113683
-125108
-145961
-130331
-104771
-113431
-125152
-146084
-129181
-103291
-112200
-124925
-145309
-129600
-103321
-111723
-124506
-144987
-126819
-100168
-111492
-124400
-142822
-126117
-98604
-108474
-123659
-140929
-125026
-98393
-108367
-123087
-138190
-121209
-93107
-103536
-122177
-135553
-117811
-91429
-103409
-121621
-138135
-120787
-95981
-104380
-121161
-141509
-122441
-97385
-108922
-123529
-142757
-128691
-102577
-110284
-123766
-143976
-128934
-103131
-113241
-124220
-144433
-131456
-105410
-113328
-124054
-143222
-131020
-104498
-111511
-123813
-144704
-134824
-105984
-111089
-123415
-144577
-134769
-106643
-112007
-123362
-144560
-134829
-106654
-112011
-123459
-143161
-133744
-108308
-112149
-123371
-143699
-134069
-104837
-111477
-123242
-143258
-133644
-103662
-109896
-122901
-142781
-133034
-101869
-108623
-122480
-140596
-129511
-100697
-107201
-122447
-142264
-134688
-105622
-110109
-123026
-143209
-135852
-107491
-110823
-123039
-142589
-137678
-107364
-110427
-122939
-143651
-139319
-108095
-111877
-123088
-142099
-137024
-102574
-100982
-115394
-116849
-95884
-71174
-87856
-118479
-139818
-134542
-104823
-108099
-122249
-139733
-133553
-106433
-107900
-122377
-141657
-136741
-106941
-108979
-122272
-140521
-136134
-105679
-107922
-121852
-140395
-136254
-106844
-107278
-121654
-140034
-136771
-105031
-106886
-121476
-139388
-135846
-104899
-105286
-120756
-138772
-134252
-102919
-105189
-120516
-137066
-129844
-100137
-102279
-119387
-136633
-129722
-100470
-99815
-118564
-134168
-126525
-98152
-98894
-118634
-134707
-128976
-98059
-99986
-119132
-137115
-134647
-105070
-104239
-120097
-138294
-138781
-107212
-105489
-120809
-140012
-141631
-108442
-107808
-121336
-139604
-142568
-110232
-109894
-121645
-138393
-141624
-111111
-107607
-121126
-138959
-140699
-109427
-106770
-121031
-138051
-140771
-109551
-106584
-120831
-138542
-142564
-109879
-106761
-121252
-137546
-141294
-111858
-108473
-121066
-138295
-142759
-111058
-107759
-121105
-136814
-140582
-108707
-104731
-120835
-136371
-139732
-107654
-103522
-119959
-135861
-138537
-106329
-103966
-120347
-135896
-139056
-111614
-109062
-121311
-136504
-143576
-114076
-107802
-121166
-136574
-145199
-113727
-109346
-121436
-136689
-144735
-113815
-109440
-121186
-137162
-146726
-110812
-97585
-112402
-116243
-107606
-79740
-84179
-113973
-134421
-142096
-110917
-106121
-120676
-135233
-143323
-109801
-105982
-121719
-135729
-146196
-115809
-107942
-120602
-135565
-145735
-113694
-105625
-120767
-135249
-144831
-113622
-104291
-119800
-135514
-144870
-112194
-105022
-119752
-134077
-143239
-112179
-103594
-119061
-133924
-143043
-110146
-103161
-119072
-132352
-139772
-109257
-100097
-117062
-132383
-140033
-105542
-94217
-115738
-131188
-136491
-105124
-96191
-115830
-130917
-137162
-107346
-98207
-116795
-131756
-140759
-110919
-102791
-118896
-132231
-143817
-116096
-104955
-119455
-132763
-146486
-117240
-104592
-119106
-133034
-148043
-117886
-106678
-119538
-132775
-148377
-117901
-105555
-119459
-132567
-148352
-119167
-106514
-119815
-132364
-147661
-118342
-105523
-119519
-132289
-147846
-118689
-105467
-119668
-132519
-148567
-116707
-105072
-119481
-132146
-148776
-118913
-105498
-119068
-131882
-147684
-119094
-105486
-119142
-131307
-147366
-118505
-104641
-118703
-130977
-144984
-114442
-100937
-117030
-130642
-145441
-115459
-102194
-118066
-130929
-149529
-120897
-104734
-118652
-130965
-148861
-121097
-107522
-119869
-131117
-149813
-121178
-105957
-119547
-131237
-150264
-123297
-108100
-120466
-131150
-144143
-106922
-82189
-97486
-111652
-115631
-97814
-93413
-115954
-130862
-147751
-118098
-102072
-119042
-131277
-147882
-119346
-104823
-119472
-131014
-148422
-121113
-106957
-119478
-130786
-149306
-121631
-105539
-118626
-130082
-147514
-122003
-104146
-117711
-129826
-147811
-120806
-101919
-115972
-129578
-147622
-119686
-101444
-116199
-128959
-145566
-121203
-100147
-115204
-128220
-142111
-116124
-96181
-112464
-127837
-140434
-111119
-92784
-112095
-127153
-139751
-114126
-93997
-111146
-127199
-143367
-115459
-96137
-113494
-127569
-145088
-120045
-102192
-115449
-127091
-147640
-123525
-103604
-115221
-126827
-148806
-126369
-106209
-115534
-126637
-149688
-125842
-106868
-116664
-126605
-148491
-125373
-105485
-116522
-126498
-149456
-127972
-105452
-115749
-126356
-148584
-127206
-105911
-115952
-126357
-148721
-126677
-105281
-116186
-126233
-148779
-127913
-105684
-115411
-126037
-147706
-126786
-105764
-116744
-126096
-148300
-128293
-106301
-116101
-125891
-147886
-127666
-105520
-115457
-125677
-146207
-125006
-103147
-113666
-125109
-146031
-126119
-101760
-112582
-124968
-145284
-126139
-103899
-114068
-125319
-149041
-133015
-108784
-117394
-125714
-148930
-132209
-108156
-116166
-125637
-148526
-131874
-106869
-115680
-125627
-149274
-133144
-107699
-114917
-124189
-134769
-105279
-75067
-88814
-113176
-131017
-120322
-101333
-112686
-124963
-146776
-129836
-105283
-113780
-124654
-147575
-130561
-107164
-115877
-124924
-146714
-131167
-105089
-114039
-124767
-146601
-131399
-106247
-114444
-124488
-146051
-131292
-105127
-113862
-124548
-144947
-130114
-104789
-111869
-123892
-145366
-129670
-102279
-110969
-123658
-143454
-127580
-100389
-108946
-123093
-142126
-126901
-97711
-107124
-122762
-141166
-125481
-97280
-106759
-122229
-139891
-123596
-97699
-107116
-122866
-141736
-127937
-104024
-111317
-123354
-144006
-133889
-105886
-112282
-123771
-146183
-136610
-109122
-113477
-124212
-145844
-133893
-111159
-116114
-124325
-146493
-139689
-109977
-113826
-124004
-145191
-136732
-112979
-114851
-123934
-144577
-140330
-112517
-114746
-124014
-146132
-140391
-110406
-115348
-123987
-145768
-137083
-109486
-116625
-123915
-146792
-142329
-111387
-113949
-123616
-145803
-140519
-111437
-112801
-123591
-146726
-143639
-112814
-114185
-123686
-144618
-141569
-111802
-112807
-123136
-144345
-139659
-107467
-110870
-123034
-142894
-137881
-109045
-111246
-123221
-144869
-143424
-113771
-115061
-123652
-145046
-143754
-114272
-114354
-123265
-144641
-142316
-113343
-114636
-123619
-144259
-144669
-114639
-115325
-123254
-143722
-141247
-102926
-97748
-112624
-120148
-109709
-88664
-100707
-121135
-142155
-141192
-110945
-111769
-122352
-142353
-143269
-110820
-110155
-122325
-141987
-142693
-112595
-111583
-122460
-141519
-140277
-111332
-111394
-122275
-141795
-144304
-110329
-108081
-121950
-141706
-143541
-111427
-110064
-121852
-139804
-139246
-109234
-108450
-121543
-139497
-139414
-107734
-106463
-121119
-138461
-137396
-106106
-104875
-120333
-137404
-134533
-101026
-101937
-119839
-136475
-134318
-102722
-102907
-119524
-136524
-135532
-105249
-105077
-120386
-137532
-139516
-111152
-109203
-121294
-139684
-145049
-112917
-109659
-121606
-139091
-143650
-112087
-111917
-122355
-139366
-147006
-115745
-111236
-122049
-138947
-144850
-113599
-112278
-122370
-138806
-145809
-116319
-110994
-121597
-138698
-146834
-114293
-107485
-121299
-138587
-147771
-116861
-110177
-121649
-138080
-147141
-115795
-110043
-121599
-137665
-148476
-117691
-110437
-121414
-137961
-147727
-116689
-109557
-121311
-137204
-146521
-113607
-107522
-121024
-136856
-145303
-111970
-106181
-120824
-135861
-145071
-114182
-107218
-120877
-136948
-149849
-119392
-111537
-121920
-136894
-150192
-118741
-110527
-121817
-136847
-151027
-119594
-110990
-121573
-136272
-150682
-121475
-112671
-121853
-133481
-135746
-92452
-79719
-104732
-122910
-131771
-111210
-105056
-120106
-135376
-149947
-117949
-108021
-121133
-135629
-150911
-120942
-109645
-120901
-135061
-149225
-120120
-110611
-121405
-134994
-150962
-120254
-108906
-120684
-134421
-150446
-119522
-110144
-120978
-133951
-147679
-118462
-107634
-120203
-133940
-148996
-117159
-106147
-119505
-133019
-146462
-116870
-105176
-118805
-132261
-143967
-111988
-101369
-117860
-131937
-143561
-111641
-100620
-116911
-130956
-140746
-109681
-100446
-117999
-131963
-145057
-116255
-105771
-119714
-132652
-148862
-118982
-107354
-120479
-132876
-152512
-124161
-111271
-121798
-133174
-155405
-126194
-110519
-121038
-132799
-152159
-124404
-111010
-120825
-132684
-153967
-125819
-111523
-121342
-132716
-154767
-125429
-110683
-120907
-132091
-152682
-125210
-111526
-121602
-132006
-153502
-125413
-108282
-120120
-131771
-153762
-127085
-110204
-120541
-131499
-154411
-129007
-111919
-120621
-131169
-152261
-126579
-110707
-119717
-130874
-152290
-125050
-108690
-119295
-130403
-150002
-122361
-105331
-118710
-130460
-151394
-126254
-110733
-121274
-130792
-154762
-129487
-112121
-120789
-130678
-154654
-128272
-111592
-120859
-130519
-154758
-129864
-112387
-121160
-130638
-156282
-131823
-110405
-118688
-125986
-128237
-95576
-78704
-103764
-127086
-149552
-127028
-110885
-120486
-129672
-152866
-128867
-110777
-120450
-129410
-152766
-130354
-111793
-120747
-129287
-153973
-132582
-111879
-119756
-129130
-154420
-132537
-111348
-119761
-128992
-153399
-131108
-111484
-119527
-128694
-152584
-129477
-108447
-118314
-128415
-150949
-128942
-109651
-118812
-128016
-149544
-129091
-105969
-115865
-127588
-148848
-123522
-104001
-116032
-127079
-146746
-121541
-101826
-115376
-126864
-146669
-123974
-102591
-114742
-127101
-150771
-129746
-107593
-118036
-127514
-151377
-135310
-113494
-119305
-127587
-153611
-134418
-113799
-120129
-127592
-154334
-138498
-115257
-120727
-127694
-153546
-138119
-116177
-120335
-127421
-152722
-138399
-114753
-120209
-127464
-154747
-139084
-115874
-120758
-127156
-153581
-138177
-115867
-120329
-127220
-154282
-138763
-116405
-120179
-126885
-154428
-140451
-115616
-119939
-126905
-153716
-138520
-115132
-120247
-126781
-154299
-140485
-114372
-119799
-126751
-152739
-137857
-111848
-117702
-126198
-150525
-135728
-113409
-118397
-126222
-152569
-140892
-115164
-119876
-126479
-152687
-142276
-115597
-118812
-126599
-153634
-142922
-117703
-119824
-126200
-153625
-143699
-116289
-119919
-126577
-153822
-141450
-111713
-116336
-123169
-129899
-105804
-82818
-101520
-123492
-148834
-137992
-114446
-117946
-125486
-150648
-140652
-113200
-118677
-125788
-151352
-142749
-115309
-118287
-125566
-150801
-142492
-115271
-118966
-125564
-150671
-142373
-114166
-118008
-125372
-150127
-142074
-114386
-118419
-125348
-148576
-141384
-113546
-116073
-124958
-148309
-139508
-111597
-115296
-124442
-146418
-136079
-109077
-113900
-124066
-146536
-135806
-107054
-112184
-123650
-144846
-133121
-103546
-112306
-123715
-143482
-134754
-108629
-112270
-123754
-146554
-139065
-111426
-115846
-124242
-147739
-143671
-116142
-118541
-124469
-148612
-146439
-117174
-117667
-124490
-148252
-147788
-118311
-118729
-124468
-147397
-146382
-117956
-118486
-124667
-147516
-145877
-116953
-118285
-124539
-148349
-148600
-116399
-116394
-124319
-146931
-146567
-117485
-118457
-124547
-147487
-148432
-119149
-117894
-124496
-147692
-148960
-117756
-117196
-124525
-146399
-147211
-117359
-116692
-124488
-146799
-149431
-119488
-117396
-124315
-145641
-147290
-116087
-116202
-124234
-145185
-145465
-113578
-113441
-123828
-144931
-146251
-115397
-115268
-124089
-146285
-150446
-120954
-119689
-124790
-145481
-151222
-121850
-118905
-124524
-145864
-151307
-121498
-117857
-124384
-146039
-154314
-124034
-119813
-124524
-142117
-137261
-94725
-88213
-112572
-129704
-128570
-109526
-112765
-124174
-144186
-150504
-117342
-114515
-124025
-143499
-149938
-119612
-116575
-124222
-143532
-149899
-120507
-117376
-124345
-143067
-150135
-119728
-115586
-123891
-143664
-151539
-118757
-115923
-124345
-142464
-149556
-118362
-115309
-123837
-142367
-149917
-117415
-113042
-123490
-141020
-147106
-116462
-113057
-123286
-140526
-145849
-112556
-108776
-122226
-139394
-142923
-110894
-108966
-122406
-138567
-141330
-110093
-108819
-122604
-138739
-146109
-114641
-110799
-123231
-140555
-151361
-121934
-115221
-123969
-140539
-151656
-124295
-117424
-124227
-141077
-155006
-126001
-118084
-124500
-141248
-155147
-125604
-118088
-124355
-140811
-154662
-124275
-118037
-125606
-142496
-154703
-124616
-118459
-126141
-142372
-154712
-125344
-119610
-126744
-142423
-155747
-125151
-118329
-126987
-141715
-155795
-127389
-119039
-127426
-141656
-155104
-128157
-117934
-126794
-141988
-157983
-128261
-118374
-126571
-141527
-158031
-128897
-118804
-126312
-140755
-153475
-124982
-116112
-126472
-140146
-152604
-123341
-114383
-125722
-139967
-152209
-125606
-117411
-126677
-140641
-157321
-130415
-118694
-126630
-141075
-158342
-130004
-121042
-127331
-140126
-158509
-131568
-118847
-125960
-139642
-161108
-132191
-118924
-124684
-134357
-136100
-95633
-83914
-111214
-133280
-148194
-122759
-114275
-123983
-136670
-156091
-128306
-116187
-123937
-136714
-156931
-128038
-115669
-123347
-135988
-156326
-128052
-115577
-123294
-135607
-155963
-125721
-114697
-123374
-135172
-156791
-126939
-113537
-122348
-134383
-153752
-123873
-108742
-121271
-133621
-152270
-124363
-110132
-120780
-132888
-150724
-122499
-108141
-119936
-132116
-148451
-120176
-106637
-119030
-131276
-146135
-116936
-103959
-118485
-131301
-147288
-118109
-104766
-118508
-131265
-147609
-118842
-108322
-120622
-132126
-153449
-125909
-111419
-121004
-132389
-157397
-129696
-113752
-121656
-131711
-155346
-129773
-112984
-121374
-131724
-156382
-130228
-113984
-121669
-131416
-155809
-130296
-114929
-121783
-131267
-156556
-129969
-113275
-121411
-131152
-156244
-131689
-113931
-121357
-130853
-154597
-128655
-112677
-121801
-130936
-155912
-131332
-114560
-122255
-130918
-156239
-131566
-113521
-121604
-130535
-155702
-132159
-113135
-120484
-130176
-155644
-131152
-112335
-120376
-129616
-152324
-129495
-110680
-119849
-129692
-152997
-127661
-109365
-119970
-130008
-156984
-134442
-113568
-121235
-129737
-155007
-133523
-114134
-121367
-129737
-156701
-135417
-115734
-121587
-129501
-156697
-135288
-115229
-121820
-128557
-148021
-115599
-87163
-101372
-118099
-131358
-118609
-108096
-119431
-128565
-155059
-133459
-111572
-119906
-128512
-154007
-135821
-114296
-119731
-128577
-155634
-136337
-113862
-120181
-128204
-153919
-134109
-111495
-118489
-128252
-155608
-134843
-111874
-119142
-127744
-151948
-133042
-111645
-118692
-127659
-152447
-131991
-109474
-117787
-127076
-150410
-130343
-108067
-117082
-126602
-149619
-128779
-105018
-114322
-125996
-147067
-125932
-102297
-114058
-125867
-144645
-124602
-104137
-114896
-126106
-148457
-129962
-106337
-116357
-126437
-150407
-133766
-110629
-117859
-126580
-150934
-134473
-113854
-119519
-126625
-152161
-137435
-112276
-119346
-126770
-151546
-137937
-113511
-118336
-126464
-153067
-138116
-114531
-119281
-126353
-151648
-136535
-114301
-119149
-126396
-151687
-137694
-113048
-118118
-126232
-150637
-138101
-112689
-118412
-126141
-151609
-139341
-113881
-118079
-125896
-151792
-140341
-113472
-117981
-125656
-151840
-138386
-112107
-117599
-125553
-150387
-138326
-110157
-116050
-125162
-150050
-135843
-110176
-117075
-125251
-150192
-139407
-113695
-118763
-125670
-150812
-140844
-114857
-119708
-125739
-151158
-142869
-116146
-118826
-125482
-150894
-144093
-117265
-118612
-125347
-152503
-145575
-113507
-115078
-123244
-133080
-108810
-81623
-100246
-122026
-145794
-138077
-113246
-117279
-125030
-149933
-143509
-114246
-116855
-124799
-149405
-142832
-116341
-118428
-124952
-149893
-145002
-116412
-118310
-124790
-149121
-143127
-115712
-118089
-124769
-149268
-143751
-114331
-116809
-124359
-147640
-142126
-112985
-115617
-124359
-146734
-140812
-111853
-114637
-123907
-145778
-140374
-110818
-113239
-123474
-144888
-137440
-108477
-110917
-122988
-144014
-135743
-105367
-110387
-123067
-142831
-137170
-107604
-110547
-123138
-144442
-141059
-112957
-114857
-123742
-145132
-143749
-116844
-116819
-124220
-146265
-146969
-117769
-117241
-124316
-147139
-147895
-119266
-118187
-124172
-147249
-149058
-117703
-117119
-124031
-145863
-146463
-117339
-117974
-123981
-146072
-148244
-118348
-117111
-123920
-145218
-146600
-117407
-117424
-123662
-145604
-150364
-119427
-116810
-123643
-144896
-148884
-119036
-116619
-123550
-144860
-149149
-118525
-115184
-123366
-143733
-147096
-117576
-115767
-123348
-143322
-146401
-114274
-113891
-123016
-142971
-146068
-115617
-114455
-123274
-143902
-151230
-122122
-117564
-123643
-143708
-150734
-120321
-117084
-123528
-143926
-152584
-121717
-117687
-123722
-143015
-151057
-122846
-118442
-123884
-141697
-141682
-98321
-90662
-113137
-128366
-125681
-107407
-110476
-122388
-141774
-149917
-120501
-115983
-123055
-141847
-150841
-120054
-115480
-123252
-141753
-152356
-119674
-115796
-123210
-141311
-151821
-119469
-113609
-122988
-140744
-150208
-119252
-113933
-122645
-140353
-150199
-118652
-112021
-122336
-139902
-149057
-118192
-113442
-122516
-138965
-147039
-115937
-111494
-122025
-137902
-144073
-113027
-108564
-121376
-136508
-142126
-112116
-106819
-120520
-136131
-141392
-112071
-106059
-120414
-136964
-144742
-114664
-109486
-121355
-138114
-150025
-120340
-113616
-122086
-138742
-153616
-121047
-114134
-122595
-138415
-153497
-122601
-114946
-122827
-138367
-154154
-124421
-115499
-123030
-138095
-153397
-122902
-114609
-122929
-137673
-154202
-124661
-114183
-122473
-137653
-152486
-122422
-114868
-122864
-137209
-153872
-124851
-114840
-122481
-137403
-154337
-122511
-113936
-123031
-137462
-154734
-123905
-114901
-123401
-137091
-153637
-123573
-112786
-122578
-136773
-153074
-123754
-111378
-122117
-136384
-151373
-120900
-111133
-122026
-135851
-152021
-124083
-113874
-122777
-136523
-154644
-126134
-115224
-123244
-136362
-154322
-124646
-114687
-123554
-136363
-157516
-127833
-115281
-123061
-136099
-157569
-129035
-115087
-122294
-131577
-134536
-95052
-79821
-105579
-129598
-144651
-120222
-111315
-121446
-134234
-154901
-125696
-112659
-122035
-134276
-155984
-124881
-112536
-122260
-133927
-155274
-127096
-114307
-122524
-133739
-154115
-124117
-111924
-121724
-133081
-152708
-125307
-111433
-121349
-132919
-153412
-125280
-110587
-120709
-132309
-151749
-123649
-108178
-120144
-131679
-149651
-120254
-105901
-119222
-131119
-148182
-118831
-104006
-118192
-130684
-146711
-117129
-102303
-117572
-130481
-145752
-116924
-101664
-118224
-131199
-148735
-121866
-108347
-120837
-131846
-152853
-126682
-113324
-121892
-132327
-155692
-128059
-111950
-121798
-131894
-155444
-131812
-114691
-122099
-132129
-156903
-132723
-113814
-121712
-131879
-155454
-129035
-113722
-122615
-131569
-156535
-131986
-112703
-121326
-131116
-154235
-130029
-111287
-121255
-130977
-155140
-130960
-112801
-120903
-130697
-154862
-131259
-113637
-121321
-130625
-156816
-132546
-111086
-119736
-130404
-154878
-129331
-109543
-120363
-129838
-153687
-130364
-109472
-119383
-128701
-151586
-127941
-108574
-118745
-128314
-153356
-133590
-113427
-120323
-128596
-155034
-133486
-113631
-120627
-128693
-156086
-134419
-114168
-120389
-128410
-155277
-134923
-114026
-120844
-128571
-155344
-132271
-107161
-114719
-122822
-125406
-97844
-83552
-108763
-126619
-150341
-129194
-110672
-119834
-127723
-153228
-133901
-112024
-119382
-127636
-153580
-135176
-112554
-119611
-127487
-153564
-135917
-113883
-120200
-127358
-152877
-134817
-113870
-119563
-127324
-153184
-135630
-112822
-119716
-127117
-151733
-134234
-112893
-118464
-127047
-152521
-134337
-109503
-117327
-126681
-149145
-128612
-106555
-116924
-126215
-148042
-128723
-105057
-114761
-125727
-146596
-127739
-103539
-114270
-125443
-145788
-127057
-104984
-115427
-125996
-149972
-132969
-108783
-116917
-126442
-151685
-138012
-114547
-119347
-126538
-152712
-139426
-115077
-119686
-126624
-153038
-140280
-115825
-120171
-126521
-153826
-140950
-115027
-118998
-126192
-152612
-141542
-114888
-118744
-126394
-151040
-139879
-118119
-119957
-126029
-152457
-141006
-114468
-120054
-126168
-152379
-142902
-116573
-120013
-126047
-152022
-142926
-117512
-119091
-125740
-152264
-141901
-114405
-118184
-125736
-150971
-140392
-112828
-118041
-125245
-149467
-140244
-114470
-117482
-125079
-148727
-138963
-114084
-117974
-125326
-152131
-145736
-117764
-119811
-125630
-151324
-145265
-119402
-120755
-125295
-151776
-147378
-119411
-119735
-125442
-152019
-148048
-119406
-119917
-124518
-139332
-117611
-82352
-91650
-117180
-142618
-136281
-112551
-116915
-124574
-149042
-143707
-116412
-118587
-124943
-149381
-146509
-119121
-118881
-124467
-149083
-146444
-117766
-118799
-124771
-148681
-146702
-117939
-117749
-124522
-148037
-145200
-116680
-117013
-124449
-147422
-145314
-116964
-116806
-124081
-146859
-143876
-114533
-115897
-123951
-145764
-142079
-111654
-113324
-123486
-145091
-139463
-109643
-112199
-122978
-143817
-139486
-109084
-109769
-122451
-143254
-138476
-107983
-111512
-123095
-144953
-142397
-112049
-113425
-123526
-145261
-146402
-117017
-115569
-123827
-146947
-150050
-119331
-116854
-123963
-147159
-152126
-121299
-118736
-124196
-146496
-151839
-119861
-119019
-124376
-146104
-150146
-119691
-117809
-124001
-145647
-151511
-120585
-116101
-123819
-145409
-152302
-121634
-116595
-123574
-145546
-151877
-121749
-118271
-123827
-144416
-151369
-120468
-117269
-123728
-143765
-149598
-120493
-117681
-123767
-143614
-149066
-117317
-114431
-123439
-143396
-151354
-117233
-113469
-122909
-142398
-148802
-117802
-113812
-123179
-143108
-153049
-122914
-117717
-123751
-143640
-155247
-124898
-118075
-123595
-143610
-156756
-126387
-118692
-123923
-143456
-157712
-126595
-118416
-123813
-141450
-146182
-105037
-96442
-113053
-126510
-126097
-105922
-110381
-122619
-141791
-155031
-122187
-115534
-123112
-141614
-155117
-123377
-116377
-123587
-141239
-154532
-122613
-116474
-123731
-140636
-152880
-124582
-117472
-123320
-140168
-153316
-123871
-114839
-122569
-140144
-152949
-121334
-113138
-122385
-139487
-151320
-120287
-113075
-122238
-138283
-148630
-117009
-109789
-121407
-138144
-148764
-116048
-108441
-121014
-136486
-144084
-112027
-104757
-120218
-135663
-143466
-111703
-106006
-120574
-136339
-146157
-116363
-109852
-121321
-136874
-149561
-118825
-111867
-122219
-137546
-152497
-120647
-114077
-122999
-137546
-153908
-122659
-113751
-122531
-137306
-154024
-122811
-113471
-122418
-136696
-153948
-125236
-112479
-121904
-136519
-153054
-124127
-113136
-122083
-136483
-153942
-124027
-113238
-122122
-135937
-152367
-123128
-112726
-121836
-135811
-154050
-122246
-112671
-122611
-135588
-152276
-120849
-109431
-121354
-135401
-152695
-122686
-110867
-121486
-134424
-149740
-119755
-108704
-120725
-134385
-150371
-120806
-109724
-121209
-134795
-153322
-125319
-114417
-122434
-134497
-155191
-126120
-113367
-122062
-134468
-155816
-126732
-113162
-122109
-134479
-157480
-128189
-112943
-120371
-131034
-135819
-93973
-79174
-107606
-129261
-144439
-119482
-109771
-120872
-132734
-151499
-123704
-111789
-121791
-133037
-154059
-126626
-111348
-120974
-132759
-154409
-126462
-112392
-121386
-132358
-153289
-125253
-109866
-120590
-132079
-152019
-125390
-110924
-120741
-132177
-154614
-124928
-109078
-119954
-131570
-152609
-125045
-108135
-119104
-131147
-151548
-122802
-107525
-119076
-130343
-147406
-120639
-104429
-117649
-129980
-145824
-118064
-101664
-116556
-129619
-146242
-118644
-105094
-118190
-130206
-151139
-124547
-107771
-119743
-130349
-153037
-127466
-110339
-120593
-130674
-154413
-130541
-111441
-119938
-130659
-155038
-131487
-112867
-120918
-130517
-155946
-132004
-114007
-121322
-130508
-156646
-132542
-112953
-120989
-130107
-156171
-133012
-113451
-120881
-129743
-154421
-133036
-113980
-121007
-129784
-155186
-133313
-113072
-120410
-129609
-155312
-133874
-114087
-120626
-129091
-153842
-132314
-112957
-120842
-129022
-152626
-130104
-109765
-118977
-128494
-152422
-132042
-111079
-119537
-128840
-155176
-136027
-114338
-121095
-129082
-155809
-137529
-117096
-122335
-128946
-157029
-137403
-115503
-121242
-128704
-156070
-139655
-117790
-121835
-128724
-154304
-130442
-99116
-108215
-120993
-129651
-109946
-100303
-117598
-127781
-153801
-138112
-115251
-120179
-128143
-154011
-137419
-116116
-120621
-128072
-154922
-138994
-115492
-120059
-128005
-155269
-137249
-115325
-121214
-127844
-153687
-138759
-114851
-119451
-127664
-152920
-134523
-111171
-119349
-127249
-152427
-135914
-113216
-118860
-126800
-150666
-132520
-108637
-117006
-126564
-149101
-131076
-107727
-115526
-125964
-146792
-127827
-104247
-114309
-125479
-146190
-127434
-101705
-113152
-125446
-147292
-130727
-107262
-116363
-126087
-149705
-135075
-111927
-118468
-126544
-152172
-138861
-112774
-118681
-126503
-152334
-139681
-114984
-119107
-126376
-152871
-140704
-114610
-118790
-126024
-151409
-141091
-114991
-118076
-126021
-151865
-141597
-116115
-119657
-125974
-151586
-141443
-114692
-118516
-125844
-150921
-141266
-116704
-119424
-125693
-151014
-141180
-115029
-118634
-125572
-150712
-142484
-115663
-117901
-125236
-150232
-140456
-112917
-117196
-125100
-148785
-139442
-113111
-117476
-124804
-148200
-139558
-113309
-116584
-124855
-149297
-142978
-117448
-119739
-125304
-150697
-145862
-117707
-119022
-125386
-150974
-145449
-117217
-119569
-125347
-149716
-145987
-120042
-119407
-124992
-147554
-135542
-97616
-98736
-114942
-126482
-118171
-102275
-112680
-124192
-148180
-143587
-115605
-117292
-124521
-148683
-144806
-114573
-116251
-124612
-147445
-142593
-114880
-116940
-124481
-148979
-146896
-115760
-116309
-124328
-147072
-144641
-115398
-116445
-124391
-146979
-144635
-115855
-115094
-123800
-146411
-142384
-110886
-112967
-123492
-144669
-140719
-110964
-112230
-123106
-143541
-138526
-107157
-110226
-122610
-141477
-135256
-105831
-109545
-122176
-141425
-135794
-106856
-108990
-122198
-141973
-137591
-108446
-111086
-122913
-143879
-144111
-115234
-115149
-123446
-145246
-148132
-116856
-116423
-123871
-145044
-148012
-117825
-115269
-123494
-144871
-148944
-116855
-114854
-123741
-143950
-147798
-118549
-116117
-123671
-144589
-149241
-117168
-114056
-123242
-143569
-147512
-118953
-115971
-123527
-144111
-149762
-118147
-115818
-123479
-143461
-148589
-118206
-114460
-123508
-143169
-149412
-117957
-115592
-123394
-142373
-148437
-118649
-115348
-123552
-143190
-150477
-117371
-112727
-122748
-142046
-148630
-116564
-113181
-122824
-140272
-144457
-116186
-111619
-122402
-141204
-148693
-116915
-113363
-122950
-141304
-149926
-120347
-115229
-123377
-141622
-153242
-121865
-115004
-123299
-141224
-152245
-121229
-114632
-123229
-141178
-152758
-122200
-116208
-122889
-135362
-129044
-87883
-82570
-108829
-131858
-137733
-113702
-111299
-122520
-139816
-150939
-118577
-112221
-122357
-139518
-151768
-120428
-113593
-122484
-139041
-152731
-122877
-113278
-122475
-138832
-153211
-121826
-113756
-122757
-138110
-150408
-119267
-112847
-122562
-137828
-150376
-118492
-110764
-122220
-137772
-148787
-115784
-109942
-121724
-136431
-146562
-117049
-108994
-120766
-135958
-145960
-111971
-104861
-119990
-134706
-142383
-111196
-104017
-119678
-134172
-141813
-111760
-104058
-120014
-134923
-145789
-115238
-107508
-120874
-136326
-152097
-120431
-110461
-121896
-136484
-152867
-122632
-111701
-122390
-136296
-152737
-124048
-112510
-122229
-136147
-153467
-124793
-113741
-122328
-135907
-154082
-122919
-110226
-121991
-135907
-154054
-123616
-111281
-121816
-135419
-154546
-124491
-112184
-122151
-135309
-152817
-123458
-112348
-121897
-134926
-153789
-124592
-113118
-122207
-134631
-153295
-124721
-111950
-121897
-134296
-153004
-126156
-113012
-122089
-134365
-152881
-124254
-112872
-122387
-134029
-152397
-125852
-114669
-123407
-134226
-154126
-124721
-111156
-121894
-134120
-153626
-124807
-110672
-121564
-133479
-151278
-123493
-108607
-121013
-133111
-151118
-123097
-110014
-121518
-133865
-156532
-127351
-111878
-122121
-133587
-156008
-128333
-113488
-122565
-133221
-155949
-129559
-113122
-121724
-133484
-157353
-130111
-114148
-122319
-130543
-138941
-98449
-76994
-101571
-123251
-140931
-121239
-108908
-120016
-131854
-153215
-127537
-111871
-121459
-131705
-153795
-128849
-112121
-121580
-131674
-155104
-128974
-110101
-120752
-131354
-153596
-128101
-110751
-121129
-131103
-153040
-127144
-110117
-119971
-130842
-153458
-127708
-109709
-119982
-130561
-152434
-126258
-108501
-119208
-129814
-150322
-125041
-106007
-118431
-129335
-148058
-121572
-103546
-117249
-129002
-147915
-120687
-101332
-115922
-128196
-145859
-121824
-102277
-115712
-128733
-148389
-124131
-107227
-118529
-129121
-153414
-130031
-109839
-120411
-129437
-154297
-132463
-112081
-120382
-129021
-153094
-133150
-112707
-120016
-129056
-154814
-133068
-112406
-120240
-128864
-156020
-134891
-113525
-121747
-128707
-154487
-132706
-113979
-122078
-128749
-153261
-133619
-112922
-120342
-128429
-153829
-135668
-112355
-120253
-128215
-154302
-135505
-113339
-119740
-128346
-154453
-136709
-114376
-119306
-127923
-156628
-139741
-115756
-120289
-128084
-154361
-135969
-115294
-120834
-127946
-155409
-137681
-113322
-120294
-127709
-153926
-137049
-116177
-120766
-127744
-154334
-138517
-113835
-119552
-127553
-154207
-138434
-115601
-119896
-127566
-154201
-137099
-112499
-118726
-127076
-150987
-133739
-111662
-118295
-126597
-152005
-139251
-115389
-120031
-126509
-153151
-139942
-115093
-120106
-126303
-153767
-141153
-115926
-120373
-126056
-151896
-140784
-117125
-120550
-126114
-153567
-141451
-111943
-114740
-123045
-131336
-106756
-84985
-105089
-123794
-149719
-137880
-113457
-119912
-125372
-151318
-140350
-115741
-119666
-125732
-151652
-140842
-114821
-118671
-125441
-151579
-144071
-116619
-119314
-125589
-150841
-142175
-114871
-118233
-125254
-150746
-142142
-115169
-117941
-125072
-149473
-139952
-112143
-116872
-125026
-149528
-140613
-112962
-116612
-124707
-147622
-137234
-109682
-115348
-124413
-146329
-133991
-105667
-112840
-124143
-144586
-131883
-109072
-113964
-123669
-144974
-134733
-105912
-113211
-124126
-145409
-137417
-114209
-117039
-124680
-148767
-144399
-115426
-117252
-124831
-149404
-145584
-116816
-118015
-124911
-149802
-147841
-117689
-117840
-124851
-149147
-147237
-118165
-118374
-124852
-148856
-147966
-118891
-118107
-124642
-148646
-146642
-116687
-118342
-124629
-147684
-146428
-118796
-118002
-124592
-148026
-147577
-118091
-118533
-124499
-147319
-147500
-119184
-118031
-124191
-146714
-148537
-118895
-118165
-124180
-146641
-149039
-120299
-119021
-124280
-146451
-148964
-119294
-118027
-124374
-146318
-148329
-119933
-118250
-124244
-145914
-150310
-121374
-117151
-124195
-146544
-150313
-118811
-116719
-123949
-144837
-148674
-120282
-117420
-123816
-144466
-146312
-114874
-115261
-123681
-145082
-150241
-119159
-116996
-124026
-144682
-151067
-120640
-119306
-124309
-144155
-149328
-124384
-119976
-124331
-145348
-153846
-122629
-118536
-124247
-144683
-154722
-122563
-116042
-123190
-136457
-126222
-88438
-90553
-115694
-139972
-147341
-117706
-116524
-123828
-142281
-148929
-120479
-117148
-123809
-143266
-153802
-122626
-115864
-123731
-142316
-151536
-121342
-115350
-123489
-141894
-151000
-121788
-115404
-123279
-142364
-153494
-120566
-115719
-123304
-140739
-149165
-117941
-114554
-123471
-140188
-147552
-118961
-114188
-123026
-139865
-148601
-116858
-111161
-122175
-138907
-145469
-113400
-108843
-121631
-137466
-144042
-112142
-105849
-120514
-136911
-143019
-111566
-105742
-120566
-138256
-147629
-116124
-109884
-122029
-138683
-149208
-119676
-114509
-123081
-139109
-153059
-123122
-114848
-123050
-139013
-153432
-122961
-115903
-123311
-138467
-153486
-122173
-114571
-123576
-138561
-155061
-126779
-115717
-123024
-138082
-153547
-123852
-114105
-122878
-137992
-155846
-124410
-113388
-122727
-137795
-155246
-125445
-115771
-123098
-137486
-155009
-124744
-114846
-122621
-137262
-156968
-124621
-114471
-122802
-136557
-153194
-125511
-115499
-122558
-136184
-154242
-127639
-114339
-122328
-136262
-155227
-125737
-115661
-122592
-136098
-156241
-126273
-113151
-122119
-135794
-155890
-125546
-113523
-122689
-135589
-156224
-127789
-115707
-122976
-135182
-155136
-126832
-114451
-122421
-134959
-155201
-124967
-113287
-122566
-134456
-154104
-124309
-111837
-121860
-133993
-152660
-123829
-112775
-122074
-134156
-155451
-127806
-114739
-122392
-134435
-157730
-129824
-113966
-122256
-134306
-158414
-129819
-115343
-122689
-134021
-158344
-131314
-115901
-122795
-133910
-157252
-125626
-102682
-114437
-124097
-124473
-99092
-94459
-117366
-132372
-155138
-129448
-113921
-121918
-132481
-155034
-130610
-115324
-122038
-132791
-157934
-129584
-113409
-121936
-132225
-156169
-130859
-114947
-122247
-132019
-155909
-131249
-113669
-121284
-131470
-156137
-131601
-112767
-121020
-131092
-153609
-128023
-111597
-120520
-130861
-155727
-129486
-111614
-120194
-130271
-150450
-125308
-109284
-119509
-129706
-150103
-122288
-104159
-117981
-129076
-148029
-120718
-103173
-117369
-128849
-147457
-122996
-105611
-117828
-129229
-151302
-127532
-108393
-119198
-129687
-153301
-131968
-114157
-120950
-130112
-156214
-133820
-114710
-121827
-130280
-155907
-133661
-115093
-121866
-130398
-156566
-134883
-116163
-122374
-130135
-155517
-134148
-113498
-121451
-130151
-156026
-135279
-115545
-121790
-129814
-156789
-135832
-113216
-120996
-129658
-156560
-137015
-115737
-122204
-129748
-155744
-135585
-114602
-120899
-129548
-155567
-137535
-116018
-121619
-129082
-156303
-137674
-115326
-121172
-128935
-156562
-138415
-115684
-121382
-128704
-155754
-139027
-115448
-121221
-128387
-155126
-137940
-115311
-121352
-128262
-155354
-138139
-115569
-121542
-128143
-154936
-138319
-113466
-120206
-128084
-155357
-139980
-115369
-119968
-127662
-153349
-136414
-113537
-119684
-127484
-153221
-135617
-111457
-118901
-127035
-151421
-135363
-111659
-119514
-127426
-153942
-140209
-116651
-119975
-127329
-154367
-140666
-115998
-120387
-127221
-154229
-142653
-117613
-120309
-126886
-152317
-140856
-118926
-121233
-126561
-148156
-125308
-89012
-95844
-114934
-130322
-121322
-106192
-116286
-126114
-152988
-141167
-113924
-118766
-126366
-153179
-141616
-114533
-118784
-126136
-151987
-141922
-114553
-118720
-126026
-150818
-142198
-116047
-118174
-125831
-151676
-140211
-114124
-119214
-125790
-150636
-141177
-113906
-117455
-125239
-149942
-140982
-113112
-117057
-125290
-149672
-139557
-110102
-115292
-124670
-146944
-136136
-108209
-113306
-124120
-146000
-132922
-103623
-111484
-123962
-144987
-133304
-104827
-112057
-124000
-145306
-132776
-109125
-115219
-124305
-147427
-139724
-113182
-116859
-124836
-149517
-144787
-116721
-118383
-124942
-149637
-145927
-117907
-118747
-125041
-149578
-147094
-118392
-118187
-124896
-150411
-148746
-118607
-118682
-124754
-149369
-148282
-120264
-119086
-124964
-149064
-148212
-118843
-117820
-124656
-147839
-147607
-118535
-118217
-124792
-148631
-148295
-119281
-118761
-124752
-147242
-149474
-121986
-119948
-124689
-147371
-148649
-119369
-119192
-124691
-148068
-150459
-120782
-119382
-124523
-146739
-148116
-120977
-119598
-124630
-147257
-150315
-120771
-118907
-124324
-147454
-151997
-120931
-118485
-124247
-146971
-151265
-119747
-119479
-124205
-145882
-150669
-121474
-119387
-124216
-145660
-152780
-123536
-118679
-124016
-145036
-149817
-119539
-117311
-124004
-144546
-149046
-118124
-115146
-123410
-143431
-146748
-115417
-115621
-123586
-144619
-151656
-120741
-117774
-124050
-143902
-150989
-120849
-119242
-124232
-144204
-153421
-121858
-117461
-124057
-144284
-153978
-122636
-118453
-124135
-141797
-143778
-102639
-93339
-110461
-123680
-123355
-105364
-110266
-122929
-142086
-150991
-121195
-115685
-123434
-141849
-149789
-118885
-116181
-123993
-142011
-151771
-121032
-116341
-123716
-141225
-150571
-121014
-115940
-123607
-140767
-150706
-121009
-114973
-123392
-140746
-149856
-119181
-113571
-123177
-140742
-151109
-118256
-112517
-122666
-139093
-148002
-117316
-111660
-122371
-138517
-147471
-115045
-109352
-121689
-137580
-143976
-111706
-106674
-121001
-137002
-143690
-109586
-104406
-120607
-136266
-142811
-114760
-107869
-121229
-137438
-148944
-117979
-111167
-122214
-138052
-152769
-121485
-113602
-122795
-138160
-153074
-123788
-115205
-123078
-138230
-154211
-123220
-114266
-122747
-137667
-153653
-123678
-114752
-122625
-137291
-153669
-122846
-114036
-122537
-137117
-153126
-123150
-114674
-122542
-136852
-153677
-122249
-112502
-122515
-136646
-153770
-123159
-112582
-122232
-136274
-153516
-124346
-112714
-121797
-136080
-154382
-124769
-113834
-122577
-135910
-152687
-122596
-112743
-122583
-135631
-153664
-124852
-113394
-122352
-134983
-153786
-125702
-112943
-122093
-135435
-154896
-125363
-113544
-122004
-134804
-154116
-125631
-115732
-123006
-134534
-153724
-125025
-114217
-121947
-134470
-156641
-126601
-112679
-121652
-134021
-154174
-125142
-112094
-121419
-133022
-150199
-121902
-110851
-120799
-132984
-151645
-123092
-110557
-121572
-133138
-153395
-126434
-112998
-122473
-133531
-154165
-129392
-114549
-122246
-133467
-157038
-128507
-111853
-121287
-133009
-155994
-128041
-110491
-119389
-127874
-127385
-91781
-79503
-106200
-128544
-147027
-122359
-110372
-120557
-131497
-155581
-128383
-110921
-120078
-131142
-153631
-126799
-111637
-120452
-130808
-153116
-127385
-109225
-120047
-130516
-152694
-127167
-111836
-120539
-130139
-153696
-127164
-108294
-119263
-129946
-152397
-126917
-107457
-118187
-129399
-149284
-123554
-106501
-118489
-129113
-149704
-123701
-104854
-117201
-128749
-147752
-121739
-103142
-116247
-127991
-145090
-118152
-102629
-115932
-127618
-143206
-120685
-104135
-115619
-128111
-149556
-123682
-104966
-117761
-128746
-151770
-129806
-111947
-119774
-128894
-154342
-133305
-112774
-119824
-129085
-154567
-133212
-114354
-120709
-128727
-155619
-134278
-114301
-121260
-128705
-154345
-133891
-114231
-120808
-128609
-154684
-135070
-113526
-119929
-128390
-156521
-137874
-115026
-120571
-128132
-154747
-136802
-112362
-119077
-128161
-156104
-136486
-114592
-120504
-128012
-154989
-137551
-115812
-120264
-127849
-154026
-136114
-114675
-120123
-127727
-154660
-136251
-114834
-120487
-127631
-155162
-139311
-114523
-120177
-127439
-155138
-139677
-116598
-120421
-127061
-153351
-137058
-114531
-120575
-127202
-153832
-137524
-113306
-119538
-126941
-152581
-136720
-113567
-119456
-126769
-152476
-136362
-112135
-118446
-126421
-151123
-133437
-109702
-118076
-126234
-151210
-134449
-111631
-119112
-126434
-153156
-139966
-115239
-119630
-126412
-152776
-140121
-115894
-119333
-126418
-152817
-142138
-116238
-118727
-126113
-154196
-141987
-112009
-116379
-123421
-130257
-102934
-80172
-100666
-122772
-148079
-136940
-114186
-118700
-125678
-150514
-137447
-113440
-118977
-125702
-151678
-140339
-113691
-117310
-125451
-152000
-141486
-112466
-117839
-125439
-150665
-139794
-113188
-118495
-125316
-149285
-139484
-111216
-117386
-125262
-149303
-138760
-110878
-115938
-124752
-147872
-136585
-109243
-115105
-124451
-147002
-135525
-108479
-113761
-123866
-143814
-130487
-104489
-111380
-123150
-142906
-131391
-103206
-109364
-123141
-142644
-129357
-102239
-109107
-123128
-145748
-135674
-108314
-112541
-123694
-145927
-138055
-110649
-115237
-124126
-148036
-142421
-111939
-115876
-124436
-148676
-142949
-112966
-116286
-124451
-147766
-143316
-115637
-116739
-124463
-147468
-142654
-114375
-116826
-124277
-147279
-143062
-113041
-116542
-124356
-146786
-143764
-114159
-116227
-123912
-147154
-143742
-113907
-115799
-123987
-146633
-143836
-112984
-113331
-123712
-146360
-145499
-116143
-115011
-123567
-145507
-145934
-115991
-115690
-123888
-146283
-147054
-114768
-114764
-123532
-146206
-147561
-116957
-115157
-123500
-145212
-145709
-116559
-114351
-123508
-144761
-145529
-116472
-115909
-123685
-145246
-147802
-116345
-113826
-123423
-143461
-143143
-113743
-112799
-123129
-142586
-141524
-112454
-111846
-122714
-143258
-144625
-112953
-112537
-123165
-143565
-147130
-117441
-115154
-123394
-144130
-150323
-118393
-115049
-123426
-143573
-148872
-117131
-114026
-123396
-144285
-151743
-120004
-114281
-122334
-133990
-118914
-79566
-84181
-113407
-136829
-139138
-112618
-112757
-122947
-142162
-148362
-118204
-113501
-122732
-142029
-147915
-115989
-111767
-122654
-142255
-150488
-117342
-112982
-122732
-140820
-147055
-116753
-112045
-122631
-141256
-148832
-115273
-113201
-123127
-140178
-146449
-115229
-110929
-122428
-139452
-145188
-113209
-110351
-121799
-139035
-144867
-112118
-107314
-121330
-137464
-140755
-109888
-106053
-120397
-136676
-140286
-107392
-104380
-120118
-136304
-139159
-106645
-104157
-119744
-135966
-141752
-113223
-107201
-120704
-138112
-148879
-117259
-109663
-121696
-138655
-150899
-119404
-112211
-122508
-138332
-150544
-121662
-114002
-122476
-138539
-151934
-121156
-113745
-122754
-138616
-153732
-121764
-112721
-122272
-138091
-153644
-122881
-113692
-122398
-137071
-149079
-121815
-116394
-122969
-136937
-152867
-124642
-112683
-121887
-137266
-152346
-121985
-112971
-122434
-137169
-152998
-122358
-112889
-122207
-136487
-152150
-120764
-111840
-121974
-136054
-152093
-122179
-112293
-121924
-135854
-152382
-121644
-112086
-122501
-136017
-153535
-122719
-110406
-121284
-135439
-152374
-121996
-111476
-121613
-135256
-152594
-120899
-109144
-120895
-134483
-150419
-118337
-107472
-120084
-133902
-149185
-118458
-106885
-120094
-134189
-151056
-122682
-112119
-121704
-134114
-151368
-123159
-112951
-121699
-134173
-154409
-123766
-110261
-120951
-133566
-153096
-125372
-111751
-121408
-133152
-147889
-108969
-85639
-103038
-115127
-119879
-99749
-98706
-118501
-132759
-151517
-123387
-108404
-119829
-132592
-152726
-123856
-108404
-120303
-132515
-150976
-123148
-108397
-120084
-132073
-151272
-123184
-107870
-119877
-131760
-150447
-122831
-107891
-119607
-131503
-148812
-121094
-106479
-119127
-131445
-150113
-121787
-106307
-118644
-130723
-147878
-118632
-103024
-117806
-129962
-145287
-116879
-101614
-116901
-129481
-144502
-114847
-98249
-115127
-128669
-142868
-114075
-97364
-114438
-128576
-143344
-116564
-100027
-116453
-129171
-148005
-122028
-103026
-118210
-130094
-149687
-122804
-106356
-118906
-130118
-152324
-127394
-109595
-119511
-130071
-152700
-127912
-109537
-119544
-129727
-152619
-127164
-108149
-119127
-129499
-153043
-129064
-110284
-119036
-129382
-152159
-127374
-106675
-118181
-129351
-153126
-129081
-107992
-118738
-129027
-150879
-128110
-109363
-118977
-128706
-150753
-128562
-108121
-117907
-128756
-152563
-129346
-108339
-118092
-128587
-152766
-128877
-106782
-117777
-128562
-152633
-129645
-107259
-117340
-127991
-150455
-127740
-107050
-117209
-127617
-148027
-125517
-105329
-116430
-127527
-149060
-126963
-106559
-117336
-127760
-152099
-133536
-109985
-118147
-127718
-153034
-133958
-110461
-117922
-127361
-150457
-131600
-110221
-118125
-127713
-153873
-135557
-110974
-117309
-125553
-135771
-101721
-75252
-96445
-120897
-142212
-124924
-105007
-116738
-126981
-150849
-131199
-107705
-117206
-126801
-150609
-132559
-108370
-117078
-126564
-150536
-133012
-109154
-116892
-126479
-150641
-134262
-108911
-116426
-126238
-149232
-132239
-108081
-115119
-125971
-148937
-131982
-106856
-115672
-125633
-147681
-129785
-104831
-114548
-125500
-146573
-128922
-104553
-112971
-124796
-145359
-126786
-100284
-110396
-124057
-142412
-124592
-98617
-109606
-123772
-141688
-123397
-98354
-110441
-124292
-144857
-129271
-104228
-112792
-124877
-147008
-132656
-107174
-114697
-125282
-148714
-134971
-108358
-115408
-125430
-149536
-137118
-109306
-114964
-125078
-149561
-139022
-111687
-117407
-125301
-149401
-137929
-109911
-115157
-124856
-150417
-140914
-111060
-115761
-124735
-147779
-139836
-111089
-115025
-124667
-147686
-138094
-111202
-114729
-124643
-147453
-136957
-109671
-114816
-124744
-147167
-139007
-110451
-114294
-124721
-147678
-138878
-111607
-115601
-124379
-147683
-140899
-110637
-114814
-124131
-145894
-138113
-109201
-111212
-123411
-144824
-136377
-108588
-111381
-123634
-145006
-138127
-110315
-114529
-124221
-145979
-140040
-113635
-116032
-124211
-147277
-144211
-113385
-114132
-123980
-146896
-142991
-112850
-115870
-124122
-146519
-145138
-113957
-112004
-122506
-131778
-109893
-77380
-87167
-115882
-140761
-135508
-110652
-113675
-123665
-144531
-141702
-111028
-113036
-123590
-144344
-142655
-114214
-113583
-123194
-145107
-143441
-112649
-113722
-123530
-144081
-142607
-113437
-112906
-123079
-143709
-144144
-113111
-111809
-122884
-142817
-140987
-111096
-111110
-122624
-142094
-140087
-110161
-109787
-122391
-142072
-139003
-106710
-107471
-121742
-139738
-135142
-104202
-105550
-121251
-138851
-133597
-102801
-104094
-120761
-137807
-132862
-102306
-103937
-120916
-139111
-137126
-107136
-108262
-122099
-141186
-142179
-112686
-112377
-122837
-141325
-142944
-111286
-111248
-122998
-142115
-147689
-117497
-113059
-122764
-141934
-147036
-115584
-111296
-122355
-141569
-148461
-115278
-109634
-122130
-141121
-146982
-116421
-112208
-122424
-140657
-147908
-116036
-110552
-122176
-140628
-147968
-115189
-110712
-122074
-139737
-147732
-116173
-111324
-122066
-139150
-147274
-115834
-110383
-121693
-139147
-147151
-115434
-109610
-121533
-138531
-145036
-114639
-109656
-121017
-138029
-145947
-113129
-106317
-120001
-136959
-142034
-110530
-106509
-120377
-136984
-145987
-113656
-107904
-120963
-137731
-148312
-116634
-108932
-121111
-137214
-148131
-118043
-111285
-121292
-136789
-148069
-116649
-109128
-121073
-136544
-147286
-117007
-106658
-118263
-124615
-112920
-78256
-79524
-110663
-133384
-143117
-114070
-106661
-119795
-134848
-146222
-117516
-108615
-120145
-135176
-147493
-114847
-107687
-120418
-134521
-147178
-116994
-106661
-119983
-134589
-148269
-118066
-109198
-119987
-134107
-146965
-116352
-106998
-118940
-133449
-146188
-115469
-106557
-119022
-132989
-145653
-114807
-103845
-117382
-132044
-143165
-111321
-102440
-117482
-130884
-140012
-107469
-98545
-116138
-130163
-138706
-108342
-98826
-115651
-130001
-138484
-107114
-99022
-116576
-130270
-142322
-114046
-103642
-117622
-130839
-146620
-118129
-107029
-118346
-131152
-149802
-119202
-106847
-118158
-130459
-148789
-119810
-106172
-117532
-130463
-150959
-120494
-108247
-118046
-129562
-148794
-121747
-107086
-117459
-129571
-149266
-122096
-108157
-117582
-129367
-150460
-122676
-108457
-118137
-129224
-149752
-122146
-108894
-118467
-129079
-150056
-122523
-108319
-117891
-129092
-150741
-122749
-109864
-118655
-128955
-151248
-124561
-109157
-118400
-129206
-152469
-125055
-108109
-117762
-128647
-150384
-123599
-106977
-117592
-128608
-149085
-121046
-103650
-116788
-129022
-149741
-121533
-105595
-117126
-128863
-151835
-126384
-109581
-119418
-129182
-153133
-127712
-110057
-119304
-129132
-152565
-129114
-111518
-119060
-128966
-153461
-129279
-111293
-119504
-128362
-144293
-108019
-81639
-98873
-113202
-122498
-107814
-100337
-116117
-128568
-151541
-127121
-108984
-118733
-128526
-150424
-128661
-109811
-118917
-128787
-152199
-129319
-109631
-118640
-128729
-152287
-129802
-108509
-118567
-128372
-150068
-127839
-109367
-118591
-128409
-150546
-128246
-107289
-117517
-128102
-149061
-126884
-106707
-116931
-127592
-146761
-124560
-105546
-115476
-127472
-146473
-121096
-100662
-114621
-126812
-143562
-119519
-99291
-112432
-126281
-143479
-119606
-97301
-111406
-126224
-144782
-122125
-102636
-114856
-126936
-147837
-125800
-105276
-117555
-130422
-150963
-129829
-109942
-120718
-131874
-152001
-132096
-111019
-121670
-131830
-151582
-131104
-110843
-121023
-131616
-151771
-130924
-111217
-121932
-131479
-150983
-131481
-110940
-120946
-131213
-151007
-132499
-110215
-120642
-130826
-149514
-131844
-112411
-120920
-130856
-150227
-131687
-110054
-119435
-130594
-151112
-133012
-110877
-120424
-130672
-151393
-132357
-111757
-120222
-130414
-150054
-132372
-112209
-120136
-130262
-149606
-131669
-108645
-119015
-130096
-148562
-130829
-108192
-117512
-129483
-147244
-129304
-106684
-116624
-129584
-148510
-133074
-110491
-118483
-129780
-149903
-135299
-114394
-120123
-129782
-150892
-135791
-112722
-119765
-129824
-150531
-136091
-111271
-119670
-129801
-151547
-135484
-105181
-111159
-120402
-118346
-95389
-79636
-104820
-127421
-146322
-132042
-110350
-117813
-128962
-148167
-134166
-110441
-118459
-129021
-149583
-136473
-110901
-118202
-128998
-148576
-135927
-111327
-118796
-128894
-148270
-136942
-111129
-117300
-128686
-148962
-136612
-109656
-116959
-128602
-145895
-132491
-109121
-116659
-128552
-147331
-133806
-107259
-114954
-127870
-144818
-131309
-106249
-112707
-127049
-142007
-127617
-101999
-110567
-126736
-142882
-126802
-99966
-108396
-126054
-141922
-128151
-103892
-110741
-126819
-144106
-131509
-107513
-115329
-128012
-145231
-134320
-111058
-116934
-127927
-147874
-139643
-111994
-116077
-128015
-147565
-140546
-113114
-117284
-128046
-147106
-140519
-112312
-115211
-127964
-146781
-139471
-111421
-115780
-127788
-145907
-141097
-115477
-116741
-127623
-145759
-139272
-113277
-116276
-127698
-145851
-140541
-112236
-110422
-118802
-141002
-140432
-111846
-111627
-119792
-141694
-143442
-114584
-112013
-120104
-141451
-142280
-114352
-112573
-120764
-142827
-145401
-114524
-113561
-121024
-142215
-144575
-112382
-110774
-120974
-142088
-144932
-114276
-111608
-121045
-141572
-142049
-110720
-111729
-120958
-140239
-140764
-109134
-108547
-121154
-141055
-143352
-114557
-112464
-122165
-142029
-145698
-114659
-113232
-122214
-142382
-146970
-116545
-113236
-122564
-142104
-147079
-116577
-113564
-122488
-141678
-147654
-112039
-103076
-116421
-122057
-108274
-81742
-92237
-118317
-140102
-145428
-115229
-111700
-122083
-141092
-146382
-114319
-111116
-122551
-140349
-146262
-117152
-113599
-122821
-140665
-147514
-115423
-111809
-122265
-140766
-148181
-115722
-110737
-122026
-140090
-146981
-116012
-111313
-121844
-139353
-145423
-113091
-110075
-122092
-138494
-144086
-113532
-107399
-121066
-137626
-141334
-110091
-105814
-120726
-136774
-140181
-108021
-101814
-119012
-135696
-137538
-105525
-101123
-119306
-135266
-137210
-106700
-102366
-119702
-136214
-140802
-111719
-107156
-121209
-137561
-145742
-115341
-108195
-121241
-139101
-150619
-116832
-108809
-121779
-138246
-149967
-118345
-110317
-122057
-138022
-150157
-117879
-110159
-122091
-137669
-149136
-118145
-110063
-121713
-137539
-150947
-118579
-109024
-121872
-137316
-150049
-118867
-108894
-121619
-137203
-149844
-118789
-109122
-121510
-136822
-150003
-118712
-109509
-121737
-136166
-149738
-120441
-110968
-121909
-136366
-150388
-120292
-109103
-121210
-136112
-149015
-117253
-110172
-122202
-135974
-151430
-120574
-108539
-121629
-135827
-150639
-119271
-108105
-121449
-135877
-152363
-121669
-110185
-121529
-135236
-150725
-119527
-108113
-120841
-134930
-150221
-119957
-107469
-120638
-134022
-147528
-116103
-104935
-119684
-133895
-149626
-119252
-105340
-119669
-134353
-152610
-121486
-108851
-120581
-134068
-151046
-122719
-109971
-121418
-134000
-152527
-124397
-110476
-121279
-133916
-152474
-123636
-110677
-122000
-133366
-148093
-109753
-89691
-105014
-111904
-116008
-96530
-94214
-116036
-132504
-149844
-122642
-107072
-119917
-132584
-150613
-121304
-105386
-119206
-132652
-151739
-122721
-106018
-119497
-132391
-150850
-121226
-105607
-119349
-131944
-149714
-122549
-105864
-118895
-131804
-149856
-119366
-105714
-119242
-131181
-148525
-119008
-102954
-118166
-130331
-144811
-117387
-101793
-117488
-130141
-144492
-114402
-98384
-115429
-129089
-140312
-112209
-95868
-113961
-129000
-140826
-109509
-94622
-113712
-128660
-140237
-112357
-97396
-114644
-129109
-143677
-115850
-100667
-116758
-129940
-148565
-122325
-105006
-118339
-130378
-150330
-123735
-105697
-118877
-130161
-149295
-124034
-105927
-117874
-130174
-150478
-125660
-104753
-117472
-129881
-150834
-124514
-105296
-118114
-129746
-150649
-125219
-106569
-118786
-129622
-151974
-125731
-105031
-118609
-129286
-150626
-126493
-106254
-118335
-129322
-150816
-125733
-106209
-117692
-129015
-148502
-124832
-105358
-117159
-128951
-150136
-125041
-104348
-118277
-129023
-150426
-125949
-105474
-117931
-128444
-150701
-127954
-104878
-117288
-128234
-149762
-128285
-107177
-116779
-128121
-148363
-125974
-105470
-116946
-128094
-149612
-127004
-105779
-116160
-127939
-148871
-126547
-104899
-115770
-127626
-148429
-126145
-103527
-115042
-127272
-146530
-122695
-99971
-113899
-126979
-146072
-124812
-104046
-115527
-127311
-149507
-128773
-105847
-116460
-127323
-149534
-129980
-106606
-116727
-127286
-148453
-128741
-106933
-115875
-127151
-150177
-131259
-104764
-114184
-124173
-128871
-95272
-68449
-88167
-115545
-136688
-121368
-102257
-113447
-126349
-148184
-128434
-104927
-114106
-126387
-146904
-129460
-105825
-115086
-126284
-148544
-130255
-104875
-113376
-126104
-148691
-130939
-104089
-114118
-125926
-146652
-129323
-103247
-112651
-125641
-145348
-126096
-102431
-113321
-125411
-146227
-127536
-101136
-110606
-124746
-142847
-125435
-101737
-110847
-124476
-142914
-124881
-96361
-107480
-123797
-139002
-119305
-94769
-106537
-123517
-138586
-119136
-94055
-106234
-123622
-140807
-124232
-99382
-109504
-124526
-143337
-128887
-104711
-112892
-125162
-145974
-132019
-106621
-113221
-125273
-146646
-135022
-107104
-112840
-125344
-146950
-135309
-107367
-113499
-125143
-146872
-133509
-105376
-112647
-124967
-148007
-136262
-106484
-112489
-124885
-145919
-134198
-108209
-113304
-124913
-146187
-134978
-107358
-114382
-124969
-147366
-137975
-108509
-113159
-124801
-146075
-136295
-108605
-112886
-124585
-146262
-136238
-107231
-111698
-124338
-145950
-137643
-108551
-112906
-124553
-146859
-138009
-107220
-111616
-124425
-145212
-136401
-108442
-112178
-124111
-145447
-137114
-106688
-111362
-123972
-144787
-138631
-109169
-112534
-124088
-145431
-137252
-108982
-113216
-123724
-144824
-137966
-105606
-109451
-123279
-144197
-136802
-105751
-108866
-122985
-142496
-134175
-104006
-109437
-123219
-143742
-138471
-107580
-110598
-123670
-144479
-138247
-107408
-111710
-123509
-143829
-140633
-112559
-111716
-123399
-143667
-139890
-110420
-113148
-123686
-141669
-131973
-92229
-87172
-104067
-112222
-108289
-90611
-102385
-121911
-143054
-140536
-109064
-108587
-122672
-142711
-140721
-109859
-110817
-123051
-142369
-139909
-109091
-109241
-122512
-143722
-142872
-110637
-110296
-122671
-141409
-139003
-110119
-110554
-122700
-141866
-139442
-107754
-108107
-122322
-140557
-138330
-108036
-107704
-121977
-139887
-138062
-104453
-103812
-121554
-138336
-134458
-103934
-102524
-120142
-136694
-131281
-99994
-99969
-119292
-136353
-130669
-98595
-98757
-119156
-136267
-131584
-100429
-102091
-120084
-137976
-136268
-105611
-105262
-121178
-139426
-140505
-109159
-107333
-121902
-140141
-143193
-110777
-107356
-121571
-140090
-144202
-113231
-108781
-121903
-139572
-143152
-111572
-107937
-121996
-139610
-143876
-112443
-108565
-121976
-139189
-144609
-113905
-108343
-121727
-138929
-145059
-113039
-108422
-121675
-138916
-144300
-111925
-107800
-121708
-138220
-143906
-114719
-108864
-121744
-138503
-144030
-113735
-109120
-121614
-138642
-146106
-114803
-109673
-121851
-139013
-146852
-113347
-109188
-122034
-138507
-146866
-113269
-107617
-121424
-138282
-147360
-113183
-106647
-121689
-138360
-147751
-114803
-108367
-121687
-137454
-146874
-114963
-107764
-121409
-136639
-144646
-113389
-106317
-120822
-136489
-144101
-112224
-105067
-120165
-135686
-143217
-110817
-103026
-119962
-136444
-146999
-117072
-108514
-121330
-136312
-148851
-118626
-108839
-121624
-136494
-148923
-119278
-108822
-120967
-136006
-148593
-119176
-108547
-120952
-135057
-141392
-101146
-84086
-101624
-110101
-112059
-93856
-96421
-118265
-135013
-147831
-116141
-108213
-120832
-134641
-146639
-116999
-106386
-120449
-134919
-147146
-116566
-106987
-120622
-134619
-148028
-115815
-105118
-119776
-134457
-147537
-115557
-105289
-119919
-134108
-148347
-116659
-104546
-119057
-133834
-147159
-115524
-104276
-119070
-133096
-145088
-112469
-100894
-118424
-132581
-142957
-109186
-97627
-116570
-131379
-140236
-107557
-94851
-115520
-130860
-138696
-106407
-95134
-115142
-130489
-139620
-108895
-98784
-116596
-131364
-144051
-113591
-101624
-118349
-132247
-147782
-117817
-104592
-118724
-132307
-149266
-120551
-105860
-119549
-132096
-149216
-120577
-106666
-120143
-131994
-149414
-120389
-105973
-119367
-131914
-148814
-120761
-106719
-119481
-132002
-150304
-121658
-106276
-119127
-131737
-151057
-121180
-106435
-119760
-131448
-149866
-124947
-107629
-119077
-131351
-150109
-122851
-107762
-119333
-131202
-150823
-123808
-108209
-119798
-131263
-151983
-123718
-105157
-118432
-131209
-150792
-125071
-107132
-118984
-130666
-150713
-125475
-108281
-119422
-130927
-152704
-125246
-108148
-119275
-130533
-152603
-126911
-109539
-119687
-130412
-151348
-125153
-105523
-118328
-130209
-150924
-124800
-105409
-117936
-129824
-150023
-123435
-104269
-117259
-129659
-149932
-124205
-105967
-118725
-130001
-151215
-127919
-109600
-119586
-129717
-152447
-129385
-107520
-119107
-129859
-153574
-130029
-109862
-119191
-129872
-153699
-130889
-110766
-119464
-127229
-133725
-97636
-71719
-92647
-116550
-136032
-119909
-103784
-116738
-128907
-150596
-126975
-107255
-118190
-128802
-150971
-127040
-107214
-117929
-128746
-152091
-129220
-107779
-118295
-128336
-150400
-127124
-106811
-118199
-128082
-150767
-129079
-107979
-117833
-127864
-149761
-127608
-105174
-116547
-127600
-148167
-125135
-103124
-115702
-127251
-147436
-124571
-101888
-114734
-126548
-142929
-119886
-98306
-112784
-125964
-141807
-119492
-96286
-110197
-125434
-141274
-117929
-95703
-110141
-125786
-143158
-120898
-99781
-112691
-126115
-147438
-127447
-104298
-115889
-126833
-148506
-130130
-107171
-116339
-126977
-150525
-131987
-108096
-116599
-126830
-150711
-131894
-108783
-117842
-126852
-151608
-134154
-107316
-114581
-126339
-149904
-132774
-108103
-115869
-126442
-149894
-133827
-108860
-116432
-126298
-148713
-132551
-106679
-115290
-126107
-150352
-135126
-109463
-116027
-126176
-149139
-132957
-108257
-116344
-126166
-149894
-133786
-107802
-116332
-126122
-148470
-134952
-109039
-116034
-126054
-149308
-136969
-108571
-114314
-125654
-149047
-134579
-109457
-116777
-125775
-148942
-136109
-109507
-116162
-125810
-149007
-134942
-108246
-116024
-125574
-147551
-134333
-107951
-114521
-125377
-147881
-133222
-105716
-112063
-124582
-146006
-131617
-104378
-113004
-125045
-148272
-136052
-109342
-115819
-125224
-149136
-138144
-109851
-115254
-125299
-148690
-137740
-110183
-115062
-125186
-148741
-139004
-112024
-115899
-125052
-146633
-128051
-88792
-91854
-107165
-116266
-105817
-90321
-107189
-123829
-146812
-137896
-109687
-113279
-124282
-146107
-137919
-110378
-114001
-124577
-146817
-137342
-109452
-112729
-124487
-146797
-139576
-110170
-112663
-124043
-146137
-138588
-110239
-112807
-123836
-145633
-137282
-108310
-112570
-123998
-144603
-136217
-107046
-111469
-123732
-143417
-134408
-105826
-110399
-123048
-142817
-132840
-102396
-106882
-122553
-140512
-129908
-100356
-105051
-121538
-138756
-126156
-98414
-105457
-121760
-139317
-129694
-101200
-106500
-122292
-141457
-135591
-106584
-109559
-123073
-143609
-139568
-111806
-112349
-123475
-144731
-142777
-113341
-113434
-123536
-144289
-142912
-112714
-112512
-123481
-144836
-143481
-113621
-113976
-123511
-144210
-142601
-112357
-112621
-123552
-144045
-143489
-112400
-113119
-123341
-143964
-143869
-113029
-111857
-123175
-144084
-144916
-113422
-113647
-123324
-142613
-142356
-112466
-112591
-123235
-143154
-144721
-112977
-112473
-123366
-142924
-144341
-114051
-112492
-122951
-143443
-146021
-113979
-113032
-123284
-143148
-145963
-114939
-112296
-123292
-142301
-146014
-115414
-112517
-122993
-142940
-147089
-114134
-111674
-122726
-141922
-145299
-112501
-109631
-122422
-141006
-143600
-110594
-107666
-121974
-140716
-143481
-112483
-112242
-122964
-141576
-147234
-115695
-112592
-122966
-141549
-147662
-117077
-113495
-122940
-141163
-147562
-116309
-111181
-122564
-141406
-148719
-117915
-111507
-121597
-132322
-117861
-77226
-78374
-108311
-131399
-137118
-109606
-109494
-122446
-140290
-146769
-113801
-109037
-121903
-139662
-148389
-116328
-110342
-122091
-139423
-147604
-116039
-109973
-122119
-138810
-146074
-114059
-109005
-121895
-138681
-146436
-114451
-108588
-121697
-137800
-144256
-114479
-107742
-121333
-137311
-143939
-113146
-106902
-120706
-136613
-142071
-109957
-104321
-119989
-135601
-139939
-107629
-101439
-118583
-135087
-137755
-103831
-99426
-118549
-133588
-135491
-105004
-99982
-118513
-134509
-139014
-108051
-103467
-119759
-135962
-144910
-113835
-106694
-120681
-136627
-148311
-116167
-108616
-121454
-136862
-148780
-118221
-109816
-121455
-136751
-149243
-117001
-109370
-121686
-136373
-150236
-119174
-107206
-120659
-136047
-148274
-118847
-109687
-121209
-135413
-147456
-119314
-110076
-121071
-135906
-150444
-118387
-108731
-120817
-135797
-150406
-117935
-108725
-121224
-135182
-149435
-119083
-108386
-120336
-135127
-150763
-120447
-109067
-120837
-134774
-150026
-120269
-108571
-120619
-134919
-150856
-119449
-107409
-120288
-134387
-151192
-120654
-108100
-120726
-133937
-149024
-120369
-107432
-119741
-133543
-147354
-116571
-106676
-119381
-133122
-147764
-115052
-103602
-119222
-132891
-148023
-119187
-107374
-120023
-133340
-150845
-121076
-108787
-120517
-133108
-150399
-122209
-110473
-120959
-132886
-150411
-123144
-109848
-120226
-133013
-151581
-122650
-104327
-116399
-125254
-120125
-84932
-76438
-107166
-129823
-146277
-118300
-105853
-119373
-132209
-149810
-119776
-106699
-119719
-132051
-150682
-120377
-105908
-119360
-132064
-149764
-120419
-105791
-119345
-131672
-149376
-121439
-106622
-119656
-131520
-149851
-120894
-104469
-117977
-130919
-148691
-120460
-103346
-117701
-130575
-146803
-118001
-101907
-117022
-130106
-145711
-117267
-101163
-115959
-129385
-143051
-113046
-96806
-114543
-128612
-140306
-111343
-95121
-113172
-128222
-141402
-112804
-96435
-113414
-128625
-143274
-117643
-100908
-115623
-129552
-148168
-121720
-105481
-117677
-129881
-151015
-124142
-105120
-118319
-129922
